-0.848997,0.508506,-0.197937,0.160008,0.587688,0.619278,-0.364547,-0.850004,0.588400,0.147827,0.450890,0.356821,0.264346,0.244986,0.705606,-0.917039,-0.453718,0.954611,-0.233494,-0.051620,0.473095,0.085900,0.918922,0.301054,0.129739,-0.858364,-0.476504,-0.589379,0.405401,0.164569,-0.096406,0.327584,0.114731,-0.375176,0.440148,-0.169061,0.340455,0.008655,-0.536725,-0.476641,0.961380,0.481127,-0.373785,0.566294,0.118548,0.609073,-0.151727,0.494709,0.153863,-0.796987,0.440303,0.624340,-0.010720,0.609244,0.900753,0.317793,-0.296106,-0.401681,-0.443579,0.766878,-0.069717,-0.078666,-0.333698,0.128370,-0.667667,-0.580478,-0.277444,-0.032878,0.503386,0.533122,0.005587,0.167610,0.266664,-0.576891,-0.036456,0.174204,-1.062684,-0.125434,-0.381621,-0.150689,-0.113866,0.214627,0.276972,0.646974,1.007061,-0.318329,-0.146457,0.495750,-0.773371,-0.435653,0.352037,0.156492,-1.009174,-0.040600,0.675244,-0.519674,-0.040137,-0.608498,-0.638961,-0.653517,0.034759,0.064202,0.099699,0.658267,0.795931,-0.023755,-0.049976,0.868176,-0.172649,1.656764,-0.315360,0.282853,-0.596887,-0.590121,0.008219,-0.669118,-0.185557,-0.569476,0.206509,0.322097,-0.311462,-0.010066,0.193584,-0.109309,0.034987,-0.092247,-0.158077,-0.429379,-0.529183,-0.505666,0.783451,0.513366,0.598801,0.297991,0.535767,0.787370,-0.077906,0.082433,0.241181,-0.826438,0.152996,0.745089,-0.338588,1.157762,-0.426997,0.805981,-0.150442,-0.354550,0.316192,0.735407,-0.585422,0.068809,0.854916,-0.116677,0.219965,0.219860,0.318943,-0.302687,-0.041956,-1.267534,-0.035070,-0.441754,-0.630369,-0.276673,0.478502,0.649956,-0.453726,-0.442122,0.025727,0.278316,1.170594,0.463910,0.428813,-0.049134,-0.215897,-0.227904,0.659624,1.208289,-0.296743,-0.773213,0.134944,-0.243120,-0.032201,-0.060881,-1.379216,0.277058,0.000293,0.233700,0.494276,-0.076527,1.041056,0.370756,-0.257675,-0.209667,-0.052033,-0.146724,-0.428604,-0.722777,-0.592611,0.130789,-0.124060,0.119817,0.052264,-0.335909,1.157638,-0.244905,0.259335,0.290556,-0.321196,0.453386,-0.366049,-0.228069,0.160205,0.453404,-0.300584,0.408628,-0.342009,-0.825833,0.100949,-0.594508,0.362323,0.325606,0.239061,0.258467,-0.113995,0.570016,0.257663,-0.157721,0.274278,0.125333,-0.906493,-0.005883,-0.659775,-0.599376,0.539702,-0.189399,-0.055086,-0.019692,0.057556,0.271963,-0.091690,-0.701540,-0.325504,0.355688,0.151547,0.142612,0.926843,0.277640,0.664830,-0.087253,0.446037,-0.069312,0.490821,1.276292,-0.316370,0.624486,0.618244,0.141320,0.165018,-0.289615,-0.179501,-0.253507,-0.235205,0.627410,-0.297817,0.290042,0.799331,-0.720440,-0.907007,-0.820098,-0.206370,0.892970,0.506281,0.822042,-0.077782,0.181856,0.233624,0.181961,0.036000,1.191854,-0.752103,-0.526202,-0.360050,0.143363,0.111376,0.229191,0.664798,0.891540,-0.310943,-0.120595,-1.320278,0.026318,0.087425,-0.150896,0.205760,-0.479458,0.445739,0.133194,1.065414,0.457688,-0.191907,-0.476657,-0.180317,0.003345,-0.046576,0.156133,1.067998,0.116950,-0.720210,-0.756896,0.254001,-0.391232,-1.107405,-0.414094,-0.194132,0.357438,-0.101881,-0.153358,0.005194,-0.077650,-0.159337,-0.579387,-0.585327,0.110495,0.430258,0.564581,0.087350,-0.461495,0.615951,-0.195423,0.822584,-0.103170,-0.043468,-0.234325,-0.081840,-0.031011,-0.254766,-0.209376,-0.779351,-0.363100,-0.392393,0.679088,-0.311706,-0.239360,0.189021,0.228292,-0.288473,-0.042617,-1.013871,0.984606,-0.008890,0.679197,0.617373,-0.171537,-0.261468,0.876861,0.487413,0.230529,-0.394819,0.076342,-0.867104,0.541503,0.275337,-0.804799,-0.125707,-0.589067,0.440885,-0.281484,-0.029641,-0.264429,-0.618107,-0.029375,-0.222073,0.709105,-0.134594,-0.023283,-1.001225,0.146573,0.360443,-0.529059,0.334679,-0.700375,0.227965,0.439395,-0.367378,0.028266,-0.683793,-0.754933,0.401214,-0.004338,-0.176490,0.183241,-0.024597,-0.057060,-0.659867,-0.210811,0.580639,-0.316859,0.318536,0.600876,0.046401,-0.772892,-0.692351,0.108876,0.973130,1.175010,0.515526,0.719941,0.219255,-0.093464,-0.404962,-0.201514,-0.242134,-0.947816,0.487002,0.106941,-0.775513,0.441855,-0.262505,0.347642,-0.386596,-0.146155,-0.162523,-0.437059,-1.429350,0.099654,-1.215327,-0.289299,-0.358269,-0.205021,0.341391,0.377942,-0.581042,0.140819,-0.619133,-0.177749,-0.124886,0.136277,0.159534,-0.575722,0.211654,0.461362,-0.975271,0.490984,0.277368,-0.592458,0.830116,0.006640,-0.295688,0.341865,1.232847,-0.630843,0.368798,0.073248,-0.004430,0.291223,0.345642,-0.355861,-0.529935,0.054025,0.181529,0.523707,-0.099848,0.577746,1.050324,-0.923401,0.274682,0.292454,-0.041304,-0.481216,0.145209,0.880441,-0.473028,0.460117,0.545981,0.716424,-0.013577,0.088157,0.033972,0.647890,-0.170262,-0.138228,0.603509,0.087187,-0.522930,-0.708280,0.467517,0.440143,-0.734852,-0.097025,-1.185209,1.016894,0.373554,-0.041543,-0.205149,-1.091474,0.431393,-0.404471,1.225033,-0.205051,0.470257,-0.129579,-0.929914,0.191284,0.175029,0.014915,-1.128310,0.468822,-0.360685,-0.273420,0.072894,0.240648,0.330937,-0.389353,-0.026986,0.007290,-0.856159,-0.456323,0.119572,0.123412,0.470869,-0.222021,0.284846,-0.799086,-0.498340,-0.197979,-0.686010,-0.508971,0.082588,-0.597569,1.309479,0.652475,0.222958,-0.779384,0.449019,-0.322714,-0.532435,0.008896,-0.110143,-0.254358,-1.119490,0.014955,0.679869,0.741726,0.657435,1.160737,-0.318788,0.284968,0.235416,-0.491287,0.489629,0.730912,-0.373078,0.010417,0.475613,0.117096,-0.067111,-0.898139,0.278777,-0.295781,1.104207,0.553181,0.062481,0.642820,-0.106557,0.159638,-0.167224,-0.037723,0.435584,0.881761,0.011220,-0.301446,-0.455952,-0.217877,0.214750,-0.144388,-0.455281,0.517662,0.486902,-0.373677,0.215678,0.007974,0.589089,0.626116,0.300168,-0.094949,-0.693411,0.552027,0.451913,0.687344,-0.798106,-0.430097,0.874640,0.299380,-0.080655,0.823957,0.215016,0.162948,-0.255285,1.209218,0.508096,-0.631070,0.098009,-1.034632,0.080483,0.186814,-0.258725,0.686387,-0.463531,-1.085290,0.061092,0.360390,0.323830,0.273741,0.238319,-0.560588,-0.536411,0.365859,0.377899,0.737623,0.181666,0.713536,-0.069935,0.789678,-0.299139,-0.922659,-0.464371,1.128216,-0.008791,-0.457573,0.009909,-0.832240,0.320790,-0.593615,-0.220508,0.487254,0.368849,-0.139635,0.108829,-0.273162,0.581098,0.272122,-0.705393,-0.206991,-0.315391,0.270224,0.093495,-0.497173,0.181802,1.410536,0.549155,0.363193,-0.485300,0.101921,0.034740,-0.056927,0.427219,-0.093109,0.080098,-0.603646,0.285314,-0.015280,0.272879,0.026679,-0.464983,-0.511159,-0.400455,-0.648814,0.162863,0.342047,-0.803949,1.044041,0.691600,-0.268021,-0.677190,0.077361,0.884105,-0.516975,0.435360,0.147950,0.207773,1.129638,-0.553217,0.498745,-0.264067,-1.215378,-1.283510,0.790544,0.043810,-0.786016,-0.178889,-0.315081,0.202370,0.526349,0.483123,0.190383,0.005659,0.122208,-0.254593,0.261941,-1.045234,-0.831150,-0.294560,0.866755,0.141818,-0.129769,-1.164887,-0.617453,0.689952,-0.192763,0.326773,0.025692,0.022517,0.334811,0.345660,-0.021233,-0.053866,0.346419,-0.573490,-0.071477,0.341890,0.717717,-0.036514,0.624336,0.380374,-0.072438,-0.044037,-0.582062,0.619950,0.072187,0.184252,-0.403599,0.126200,0.180851,-0.492644,0.079806,0.225604,0.264533,0.805089,-0.263195,0.845477,0.191973,0.168044,0.035793,0.189100,-0.038851,0.241208,0.414079,-0.028793,0.351049,-0.539478,-0.616717,0.139870,-0.168957,-0.642847,-0.063639,-0.694562,-0.220211,-0.470290,-0.072062,0.615913,-0.374592,0.576512,-0.566564,0.128260,-0.092054,-0.755891,0.391959,-0.810939,-0.007815,0.035371,-0.805524,-0.308694,-0.937911,-0.402792,-0.535582,0.165843,0.219576,-0.202154,0.520245,0.195993,-0.816824,-0.374207,-0.156155,-0.243974,-0.075762,-0.086524,-0.173418,-0.206698,-0.540986,0.214456,-1.156318,-0.671223,-0.092268,-0.530406,0.223879,0.343214,-0.074152,0.833273,0.449819,0.752764,-0.085228,-0.182193,-0.411431,0.200171,-0.245275,-0.498386,-0.568297,0.131324,-0.212326,0.256073,-0.399911,-0.113157,0.201850,-0.268150,-0.088349,-0.095210,-0.064181,0.225526,-0.002424,-0.986056,-0.653382,-0.590686,-0.102332,-0.025496,-0.441216,0.063916,-0.092101,-0.100184,-0.269309,-0.005345,0.567274,-0.866053,0.346104,-0.244615,0.230205,-0.559814,1.131243,0.111785,-0.091710,-0.076391,-0.875852,0.113544,0.587368,1.143437,-0.481819,0.789875,0.593906,-0.841115,-0.083818,-0.256050,-0.129474,-0.757570,0.170628,0.175061,0.299997,-0.085347,-0.146105,-0.381195,0.264629,-0.393598,-0.072925,-0.293182,-0.458149,-0.286931,-0.206393,-0.416175,0.418848,-0.003595,-0.685696,1.224017,-0.148020,-0.397207,-0.220441,0.315199,-0.616016,-0.257786,0.112917,-0.118771,-0.035918,-0.684190,-0.734016,-0.155659,-0.623191,-0.272684,-0.098082,0.136957,-0.165578,0.391801,0.171455,-0.539290,-0.524354,-0.205110,0.188572,0.819109,0.143210,-0.059399,-0.109413,0.049162,-0.134557,0.357025,0.302272,-0.205005,0.061466,0.351124,-1.038213,0.110458,-0.190789,-0.263506,-0.098637,0.191308,-0.723526,0.106256,-0.772505,-0.631698,0.452104,1.078971,0.066450,-0.549434,-0.668308,0.328094,-0.313277,-0.354215,-0.262236,0.677447,-0.054531,-0.037182,-0.406874,-0.289893,-0.362906,0.691194,0.025111,0.240329,-0.426657,-0.234015,0.164826,-0.361844,0.224201,-0.452882,0.130687,-0.896547,0.002616,-0.457705,0.031942,0.674540,0.146764,-0.680976,0.223157,-0.407323,0.435600,-0.378022,0.131533,-0.213834,0.032976,0.269201,0.697571,0.203053,0.000190,-0.132346,0.214781,-1.213168,-0.409384,0.146166,0.330050,0.211628,0.377560,1.203968,-0.036303,-0.493026,-0.385516,0.627533,-0.676087,0.146228,0.606827,0.056662,-0.306646,-0.487405,1.253589,-0.157481,-0.437282,0.127633,0.798927,-0.247881,0.347762,-0.626129,-0.244504,0.156156,-0.271487,-1.032938,-0.241944,0.114779,-0.084936,-0.302100,-0.066684,0.110590,0.666076,-0.626044,0.382560,0.104333,0.094892,-0.041282,0.643258,0.012925,0.508684,0.398551,0.668339,-0.439659,0.101718,0.046276,-0.151354,-0.254891,-0.029421,-1.001066,-0.387892,0.561328,0.140112,-0.210457,-0.170788,-0.544412,0.402626,0.351162,0.197780,-0.495924,0.223705,0.117451,-0.202907,-0.437695,-0.182135,0.179329,-0.181956,0.590788,-0.605810,0.679196,-0.527059,0.009118,-0.307096,0.259460,-0.190760,-0.376140,-0.181421,-0.297345,-0.613459,-0.673632,-0.319309,0.460221,0.317165,0.902869,-0.771799,0.141633,-0.531618,-0.408746,-0.786584,0.353808,0.915364,-0.097506,-0.226671,0.374088,-0.615016,0.417330,-0.353520,0.439479,1.635740,0.551604,-0.213122,0.157301,0.469072,-0.419097,0.069276,0.053048,-0.044987,0.760196,-0.102441,-0.186007,0.176714,0.478943,-0.829650,-0.001430,0.269108,-0.179261,-0.458046,0.276811,-0.072106,-0.050688,-0.192293,-0.017946,-0.112440,-0.845813,0.257089,0.406206,-0.226333,-0.895810,-0.168118,-0.459087,0.317154,-0.468698,-1.004334,0.881940,0.489886,0.298758,-0.149396,0.182555,0.416791,0.041124,-0.477642,-0.322682,0.727665,0.838027,-0.688809,0.414670,0.014909,0.868736,-0.137099,0.363231,0.451821,0.134637,0.753380,-0.249939,-0.509374,-0.352376,0.157712,-0.215106,0.532993,-0.245553,-0.013698,-1.329973,-0.624533,-0.080968,-0.409741,-0.654801,0.848858,-1.394417,-0.007036,-0.435898,0.065441,0.450197,-0.196526,0.293514,0.567831,-0.031101,0.628630,0.447990,-0.055342,-0.117039,-0.066625,-0.417669,0.880314,-0.698498,0.122750,-0.283180,0.140805,0.440232,0.468999,0.479088,0.096906,0.682591,-0.605254,0.091182,0.602206,-0.470162,-0.177956,0.157047,0.653386,-0.508277,0.031319,-0.700403,0.079300,-0.034391,0.192874,-0.085414,-0.549744,0.167660,0.642135,0.081703,0.037754,0.564811,-0.078346,-0.610915,0.133703,1.127231,-0.014710,-0.124655,-0.380740,0.647836,0.298623,0.170959,-0.599161,-0.336390,0.308543,-0.793975,-0.564856,-0.164715,-0.163856,-1.046416,-0.638980,-0.690351,-0.076884,0.569843,-0.349890,0.418272,-0.811143,0.480413,-0.559992,1.155969,0.249663,-0.119425,0.486857,-0.586056,0.049895,0.668249,0.658674,-0.527710,0.681764,-0.516458,-0.756715,0.390749,-0.906706,0.135547,-0.108144,0.394814,-0.509350,-0.143470,0.302123,0.095167,0.737921,-0.071212,-0.964486,-0.241160,-0.531234,-0.090847,-0.496516,1.108733,-0.728144,0.420747,0.591636,-0.433249,-0.583635,0.235874,-0.501127,0.262310,-0.211400,0.190077,0.063066,-0.045657,0.721938,0.343227,0.008743,0.184044,0.281336,-0.865292,-0.611126,-0.079809,-0.550042,-0.407290,0.478509,0.423886,-0.733142,0.905215,-0.514901,0.109291,-0.414160,-0.353587,0.667258,0.101530,-0.303883,0.891244,0.233148,0.343894,-0.211726,0.465749,0.332262,0.425964,-0.270284,-0.190196,0.276742,-0.658708,-0.013527,-0.331030,-0.506147,-0.738548,-1.075646,0.076753,0.546065,0.447131,-0.694771,-1.177045,-0.409052,1.311855,-0.589094,0.223014,-0.066920,0.843845,-0.388115,0.181650,-0.349238,-0.412308,0.557538,-0.586605,-0.190704,-0.517705,0.178738,0.008399,1.291509,0.767513,0.113729,-0.514841,0.752845,-1.114416,0.226610,-0.275620,-0.450340,0.559528,-0.292214,0.650348,0.741811,-0.246414,-0.256422,0.829269,-0.766081,0.050839,0.681624,1.077041,-0.045888,-0.398693,-0.238141,-0.567925,0.165425,0.211369,0.040653,-0.715319,-0.154078,-0.261942,-0.172036,-0.671688,-0.755255,1.121139,-0.257158,-0.184759,0.435520,0.037889,-0.782942,0.331788,0.253039,-0.771690,0.383790,0.002013,0.566710,-0.038498,-0.391680,0.567695,-0.459896,0.527241,-0.028542,0.041963,0.516955,0.053604,-0.509899,0.060707,-0.604529,1.127062,-0.539071,-0.287746,0.813895,0.394929,0.385571,-0.956040,0.157369,-0.022077,-0.521499,-0.203177,-0.660382,-0.498004,0.394960,-0.273993,0.214263,0.103177,1.014511,-0.414257,-0.902828,1.158496,-0.551572,0.229201,0.327134,-0.807475,0.310360,-0.137062,0.053054,-0.575575,-0.046343,0.308397,0.668023,0.524452,-0.116828,0.080521,-0.042693,0.491417,0.134250,0.288739,-0.767995,0.256637,0.494452,-0.105429,0.315299,0.073519,0.226623,0.971974,0.362186,0.437411,-0.678676,-0.808595,-0.022919,0.932208,0.688054,0.016109,0.285971,-0.228867,0.169614,1.387210,0.687766,-0.411903,-0.540703,0.201225,0.332482,-0.607059,0.748807,-0.367833,-0.743004,-0.069202,0.150963,-0.041431,0.290852,-0.332945,-0.535483,-0.100152,0.079576,0.111371,0.217527,0.187746,-0.217371,0.109958,0.544629,-0.643620,0.781700,-0.148151,-0.190131,0.172626,-0.574229,0.408469,-0.203010,0.127120,0.149648,-0.358922,0.032821,-0.780262,0.136431,0.614331,0.198263,-0.085879,-0.784718,0.541091,-0.306675,-0.182425,-0.036383,-0.783955,-0.668451,0.857647,-0.129769,-0.038144,0.198639,0.527789,0.156470,0.809673,0.397126,0.287851,0.100942,-0.011114,0.390948,0.410884,0.184419,0.283519,-1.215132,-0.221979,0.140140,0.127810,0.515614,-0.087255,-0.006206,0.077792,0.172157,-0.245140,0.697649,-0.502031,-0.641689,0.513002,0.103461,0.453900,-0.263601,-0.410786,0.849364,-0.028867,-0.219967,0.141523,0.302448,0.308873,0.058973,0.275806,0.016753,-0.696736,-0.421928,0.555318,0.110923,-0.569233,-0.654062,1.369811,0.213035,-0.014685,-0.283430,0.371147,-0.281294,0.122377,0.471965,-0.825657,0.536139,0.641267,-0.315217,-0.171387,0.481102,0.487701,-0.376617,-1.047175,-0.076806,-0.027539,0.289833,-0.074973,0.552383,-0.423514,0.256859,-0.291005,0.825538,0.077360,-0.858314,-0.365838,0.185858,0.566145,1.074058,-0.161871,-0.497001,-0.861887,-0.283513,-0.672133,-0.002190,-0.469000,0.418999,-0.332651,0.248228,0.064745,0.504961,-0.187277,-0.347711,0.421514,-0.297047,-0.080111,-0.033501,0.093663,0.271853,-0.049461,0.511534,0.132390,-0.084464,0.430919,1.288948,0.202204,0.442585,0.648491,-0.239122,1.196416,-0.318569,0.308213,0.264362,-0.279716,0.774811,-0.307813,0.853884,0.705936,-0.734167,-0.494931,0.217907,0.237931,-0.532994,-0.203116,0.303485,-0.320137,-0.303853,-0.735799,0.185396,0.126348,-1.167642,-0.396658,0.188438,0.717178,0.291160,0.837541,0.446228,0.674975,0.120718,-0.400679,0.625395,-0.583377,0.140228,-0.534549,0.186489,-0.378498,0.116390,0.128787,-0.174202,0.437165,-0.591241,0.199956,-0.576508,0.142518,-0.138134,0.474221,-0.361573,-0.372188,-0.361037,-0.202984,-0.432764,-0.284519,0.645238,-0.412816,-0.224647,-0.466547,0.014812,-0.415798,-0.594675,-0.851211,-0.012449,-0.415373,-0.554161,0.147449,-0.099951,1.007773,-0.361632,0.372566,0.744479,0.199317,0.297827,0.485636,0.016972,-0.183171,-0.058886,0.043027,0.534407,-0.576691,0.155760,-0.020563,0.605548,-0.417714,0.136207,0.133416,0.620739,0.439838,0.301763,-0.446687,-0.571921,1.301773,-0.251151,-0.102452,-0.208902,-1.121773,-0.319993,0.078029,0.000622,0.114058,0.113460,-0.060270,-0.557759,1.451795,-0.833867,-0.079729,0.081597,0.150942,1.025227,-0.169813,0.683413,0.611328,0.301606,0.690706,-0.229959,-1.056466,-0.525715,-0.872517,-0.552230,-0.689160,-0.329428,0.075883,0.377468,-0.404265,0.478719,0.193763,-0.580692,0.308192,-0.018667,0.132244,0.311092,0.023001,-0.156892,-0.261842,0.053147,0.171163,-0.301954,-0.211467,0.320699,0.313028,-0.411259,0.058631,0.503976,-0.315998,0.088608,-0.589969,-0.153926,0.447714,-0.414395,-0.286456,0.291545,-0.166574,0.056281,-0.109312,-0.500337,-0.236203,0.072511,0.181245,0.159391,0.313669,-0.379069,0.711408,0.417931,-0.177430,-0.457469,0.256417,-0.433253,-0.504005,1.069686,0.767433,-0.255102,0.047936,-0.196437,-0.195604,-0.102226,0.301484,0.111466,0.358292,-0.036458,0.209550,-0.629238,-0.620684,-0.347147,0.386059,0.207510,-0.186946,0.370622,-0.353269,0.389449,-1.028797,0.045786,-0.131590,-0.587136,-0.778798,-0.143793,-0.797680,-0.970676,-0.149720,-0.701093,-0.391686,-0.091600,-0.152358,0.057453,-0.156324,-0.645108,-0.234752,-0.127977,-0.802270,-0.795412,-0.128251,0.150272,0.349403,-0.099277,0.102587,-0.046043,0.180561,-0.286560,-0.406197,0.111750,-0.484665,0.189410,-0.009978,-0.119535,-0.097453,0.662371,-0.048229,-0.240730,-0.641897,-0.495352,-0.224735,0.860684,0.664605,0.695446,0.854226,-0.237541,-0.341564,-0.373327,0.205071,-0.252189,-0.722783,0.372771,0.805504,0.034853,-0.659640,-0.808670,0.447200,-0.087705,-0.602531,0.086121,0.536581,0.358749,-0.600986,0.290246,-0.607073,-0.800430,0.304256,-0.307008,0.133446,-0.622742,0.202022,0.089343,-0.414733,0.014196,0.561567,-0.444405,0.136256,-0.370041,-0.458942,-0.580320,-0.925762,-0.517191,-0.605774,-0.143093,-0.499982,1.076868,-0.553564,-0.154540,-2.012883,-0.487656,-0.065419,0.555664,0.896209,0.746845,-0.224240,-0.319377,-0.249127,-0.174236,-0.686773,-0.198243,0.195876,-0.892012,-0.220377,0.102324,0.394841,-0.253687,0.793286,0.293053,-0.434092,-0.319605,-0.801402,-0.175223,-0.096092,-0.029198,0.188485,0.507585,0.243868,1.766181,-0.331957,0.234837,-0.559826,-0.072573,-0.974510,-0.086332,-0.559514,0.197460,0.031049,-0.272042,0.534743,-0.132402,-0.044470,-0.371856,-0.679771,-0.459846,-0.038671,-0.152034,-0.626814,-0.107323,-0.123184,0.031178,0.057498,0.444515,0.208505,0.439720,-0.359468,0.071403,-0.492330,-0.528715,-0.281299,-0.126780,0.152036,0.052670,-0.331083,-0.645145,0.226827,-0.888127,-0.096235,-0.000067,0.869338,0.101813,0.279825,0.121534,0.215028,-0.337266,0.555436,-0.111575,0.392047,-0.077244,0.280029,-0.600653,-0.272621,1.811847,-0.373681,-0.095519,-0.191802,-0.359123,0.187019,-0.167276,0.221036,0.119053,0.550227,-0.697512,-0.300790,0.194921,0.501210,0.718425,-0.005521,-0.568534,0.028816,0.757986,-0.741822,0.470331,-0.118982,0.356971,0.145184,-0.183027,-0.182459,0.211046,0.522067,-0.466603,0.168057,-0.052647,0.097927,-0.223134,0.342469,-0.769997,0.382419,0.392691,-0.177579,-0.251480,0.615182,0.627792,-0.648918,0.340876,-0.308558,0.387619,-0.003029,-1.134244,-0.484535,0.522567,0.882089,0.615356,-0.217665,-0.606168,0.252236,-0.627072,-0.309863,-1.092206,-0.597243,0.102629,-0.098211,0.459883,-0.483777,-0.010383,0.298108,0.386272,-0.931927,-0.082698,-0.588697,-0.145324,0.162601,-0.054032,-0.588333,-0.067802,-0.424786,1.057957,-0.193794,-0.195120,0.417592,-0.013174,-0.299562,0.372119,-1.053714,0.847782,-0.293001,-0.075280,0.547124,-0.718682,0.311867,-0.859324,-0.300108,-0.103760,1.223751,-0.271622,0.421266,0.064499,-0.126051,0.329472,0.457362,0.361833,-0.184651,0.029506,1.124653,0.095945,-0.307144,0.198026,0.120420,-0.711620,0.769440,0.784052,-0.408420,-0.810589,0.542073,0.122177,-0.010513,1.219532,-0.140286,-0.103200,0.126285,0.499883,0.347203,-0.844318,0.291808,-0.080194,0.725019,0.228364,0.300212,-0.363755,1.317514,-0.310590,-0.740975,0.635616,-0.018841,0.602356,-1.091443,-0.853561,0.386147,-0.419586,0.065682,0.155464,-0.274109,-0.126428,0.442996,-1.160087,0.326668,0.313268,-0.285861,-0.323764,0.014952,0.450623,0.218222,0.108727,0.885803,0.420875,0.429734,-0.258721,0.394783,-0.726870,0.508455,0.992584,0.734936,0.520222,0.258687,-0.287120,0.428069,-0.384195,0.183875,0.133534,0.466209,1.033970,0.641904,0.622789,0.248954,-0.536996,0.744027,0.728651,0.053270,-0.610866,0.415091,-0.718442,0.181692,0.214777,-0.639419,0.143813,-0.632727,-0.860650,0.655144,-0.581405,0.778270,-0.869177,0.683675,0.985169,0.239542,-0.682468,0.349660,-0.423105,-0.013650,-0.573649,0.240644,-0.137968,0.407176,0.718146,-0.475609,0.766591,-0.182099,-0.733992,-1.005924,-0.475712,0.405263,0.192101,0.162013,0.085645,-0.812942,0.459218,-0.362817,-0.398221,-0.391635,0.022491,-0.186210,-0.234773,0.299722,-0.252221,-1.138025,0.457217,-0.294109,-0.178761,-0.186202,0.122994,-0.665031,0.331703,-0.031822,0.432715,0.452341,-0.324978,-0.097557,0.891919,-0.107468,0.250741,-0.408517,-0.287891,0.352857,0.323155,0.393166,0.018294,-0.267716,-0.142694,-0.558279,0.789956,-0.636956,0.043314,0.168460,-0.090244,-0.801771,0.421986,0.766425,0.012237,0.582374,-0.222599,0.043290,-0.326579,0.002840,0.038552,-0.300538,-0.679480,0.229154,0.089272,0.779039,0.381735,0.265240,-0.965090,0.024413,0.115079,-0.486504,0.172136,-0.662491,0.254679,0.496503,0.496044,0.240450,-0.030468,0.333627,0.459094,0.443753,0.391408,-0.209925,-0.002979,0.222446,-0.601290,0.330251,-0.213918,0.675232,-0.958868,0.224033,0.294971,-0.557657,0.135886,0.859650,0.680499,0.711651,-0.252820,-0.423480,-0.091508,0.725091,-0.968013,-0.058185,-0.466636,0.027779,-0.386719,-0.245923,-0.738078,0.763641,-0.396899,-0.362113,0.660563,-0.424608,0.143664,-0.300429,0.421563,0.301870,0.463903,0.621051,-0.383083,0.248152,0.973500,-0.190221,0.387331,1.035635,-0.656333,0.286744,0.346645,-0.020546,-0.142528,-0.282263,0.113905,-0.297400,0.410685,0.159169,-0.141578,-0.729076,0.515123,-0.380537,-0.740773,0.741710,0.163402,-0.616680,-0.252860,0.778591,-0.656408,0.415076,-0.209541,-0.530046,0.450588,-0.231645,0.891008,0.590469,0.019762,-0.387111,-0.370824,-0.597086,-0.004130,-0.539735,0.253505,0.329786,-0.010979,0.498721,0.323209,-0.082307,0.453354,-0.199947,-0.364758,-0.571013,0.715706,0.808819,0.207352,0.059806,0.017463,0.239450,0.136694,0.287970,-0.258811,-0.433113,-0.109859,0.450316,0.013820,1.029477,0.200371,-0.554763,-0.071724,-0.188329,0.955748,-0.268290,0.364263,0.242005,0.566029,0.135599,-0.545801,0.134185,-0.757533,-0.276909,0.040933,0.344829,0.362833,-1.240271,-0.728857,-0.182908,0.534657,0.500408,0.252893,-0.964385,0.469801,-0.759065,0.180054,-0.012923,0.815974,-0.787435,0.442303,-0.752948,0.217261,-0.237667,0.383265,0.088844,0.629528,-0.391010,-1.063909,-0.120496,-1.283852,0.664291,-1.094795,0.221394,-0.282083,0.296531,-0.590259,-0.248785,-0.158799,-0.088137,-0.040070,-0.601084,-0.143996,-0.254077,0.029641,0.088088,-0.352065,-0.196496,0.146837,0.183115,0.712294,-0.279969,0.259658,0.393061,0.915593,0.267506,0.856160,0.059019,-1.039178,-0.286157,0.343082,-0.437771,0.590615,-0.304358,0.257497,0.375213,-0.868913,0.357236,0.279230,-0.694857,-0.764524,0.336057,0.075867,-0.465105,-0.102591,-0.207763,0.436415,-0.921659,0.663433,-0.087193,0.402550,0.363220,-0.754284,0.617926,-0.119251,0.380585,-0.110831,-0.470207,-0.951218,1.017981,-0.491947,0.158663,0.196193,0.532295,0.430861,-0.778299,0.152971,1.039733,-0.370691,0.047761,-0.549918,0.483421,-0.770162,-0.202542,0.172493,0.161728,-0.169808,0.600812,0.518183,0.398900,-0.378662,-0.281242,0.423053,0.275160,0.456356,0.655000,-0.207283,-0.927783,0.976445,0.606030,-0.596390,-0.124437,0.495103,-0.162827,0.342716,0.906936,0.075791,-0.114631,0.538414,-0.039659,-0.549122,-0.261359,0.144339,-0.878450,1.008915,0.282147,-0.369862,0.679547,0.263521,0.757533,-0.241653,-0.315490,-0.316408,0.358730,-0.714311,0.688057,-0.582595,-0.425100,0.337551,0.346749,0.005445,0.672192,0.734636,-0.667105,-0.303564,0.458013,-0.556143,-0.695332,0.085965,-0.363782,-0.342147,0.383096,0.393912,-0.062284,-0.070073,-0.027405,-0.512106,-0.060212,0.349950,-0.663933,0.667370,0.955893,-0.599042,0.124700,0.600990,0.647933,0.305235,-0.134563,-0.664734,0.613680,-0.265816,0.199904,-0.170875,-0.643497,0.426356,-0.751500,-0.392101,-0.743110,1.253338,-0.540290,0.084900,-0.126122,-0.332897,-0.761594,0.340304,-0.208048,-0.128341,-0.630341,1.500874,0.177344,-0.083118,0.011984,-0.537039,-0.122427,-0.083765,0.653812,0.034454,-0.240803,-0.100593,-0.209912,0.856811,-0.007688,-0.193045,-0.398413,0.704753,-0.656625,0.041695,-0.192736,-0.368252,0.016945,-0.379405,-0.130899,0.442414,-0.530729,0.040432,0.233316,-0.483218,0.315304,-0.351068,0.912159,-1.467223,-0.026436,0.341685,-0.823969,0.440299,0.598111,0.177308,0.511495,0.243293,0.288904,-0.187924,0.654936,0.432908,0.252584,-0.187547,0.253228,-0.467788,0.077034,-0.215045,-0.135418,0.209427,0.026550,-1.210091,0.085848,0.761845,-0.059088,-0.121229,-0.206798,0.710693,0.928705,1.233529,-0.215775,0.669314,0.965911,-0.275996,0.337815,-0.066630,-0.532107,0.274458,0.132477,-0.401049,-0.209957,-0.130265,0.232051,0.052955,-0.162645,0.054339,-0.316217,-0.617291,-0.897795,0.239103,-0.604056,-0.225448,0.236274,-0.163302,-1.135929,-0.615313,0.581129,0.324845,-0.350817,-0.193272,-0.050712,-0.270458,-0.022476,0.947770,0.705367,0.619327,-0.251413,-0.229000,-0.196039,0.682930,-0.193741,-0.657567,-0.128085,-0.935543,0.368303,-0.412230,0.911368,-0.559911,-0.352838,0.249700,-0.002532,-0.473034,-0.404903,-0.051981,-0.285956,0.313173,-0.217576,0.074544,-0.009794,0.027226,1.018616,-0.220402,0.465575,0.507085,-0.784916,-0.169416,-0.161613,-0.041401,0.094667,0.008340,-0.042637,-0.265723,-0.064836,-0.640495,-0.777316,-0.213303,-0.476139,-0.524460,0.273761,-0.190437,-0.547579,0.089828,-0.222031,-0.260893,-0.137131,0.427231,-0.375085,0.415905,0.238394,0.232107,0.216402,-0.611324,0.220724,0.261154,-0.775633,0.105266,0.921116,0.502978,-0.693704,-0.224441,0.203636,-0.860054,-0.859688,0.544369,-0.257491,-0.295937,-0.681050,0.487138,0.507273,-1.184309,0.457201,0.693621,-0.519723,0.532200,-1.209384,0.043575,0.847077,0.146281,0.582978,0.262557,-0.426015,0.167933,-1.203840,0.549026,-0.260527,-0.074605,0.519091,-0.107651,0.279091,0.458451,-0.129231,-0.192173,0.457694,0.314008,-0.122181,0.067576,0.225097,-0.258789,-0.540121,-0.643950,-1.123559,-0.433746,0.074546,0.495202,0.593432,-0.452861,-0.339935,0.688044,-0.598305,-0.589522,1.149809,0.168014,-0.060504,0.327111,-0.199122,-0.375710,0.468107,-0.655374,-1.017405,-0.070887,0.629378,0.626143,-0.591547,0.646021,-1.024117,-0.308655,-0.173255,0.590860,-0.075703,-0.262671,-0.379646,-0.730381,0.031660,-0.893330,-0.472462,-0.264336,-1.017498,-0.471687,0.206442,-0.378988,0.866679,0.048754,0.251237,-0.124402,-0.174594,0.064973,-0.126961,-0.082060,-0.167572,-1.049303,0.165770,-0.329258,-0.299298,0.017073,-0.229501,0.253467,0.285778,-0.383770,-0.856485,0.778707,0.197584,-0.078302,-0.037671,0.208051,0.279692,0.705362,-0.526702,-0.663962,-0.005686,-0.101116,-0.332275,-0.197480,0.851082,0.178356,-0.003157,0.200271,0.080958,-0.683433,0.365472,0.154978,-0.419390,0.026303,-1.197347,0.798428,-0.303312,0.578083,0.324483,0.082210,-0.406577,0.528641,-0.394138,-0.476823,-0.795430,0.194150,0.086544,0.543265,-0.730076,0.758233,0.055797,0.293658,-0.581979,-0.804812,-0.561956,0.125805,1.097106,-0.051326,0.206362,-0.551662,0.218638,0.622821,0.294431,0.377005,-0.244324,-0.092799,-0.486888,0.616615,0.096800,0.433804,-0.149795,0.106112,-0.976044,0.345276,0.670197,-0.037721,-0.057093,0.039801,-0.250348,-0.484103,-0.161124,0.196527,-1.117601,-0.066773,-0.256215,0.424817,-0.513764,0.943544,-0.074154,-0.993219,-0.357205,0.896967,-0.388770,-0.283736,0.052616,0.724905,-0.433689,0.460953,0.668366,0.522787,0.393916,-0.054228,0.389711,-0.026810,0.272810,-0.139827,-0.532209,0.106296,0.453474,0.229838,-0.553341,0.138579,0.006465,-0.246148,0.633546,-0.441804,0.020586,-0.754689,-0.778912,-0.174742,-0.347474,0.382791,0.565801,-0.969647,0.587996,0.114792,-0.203875,0.597766,0.203425,0.230293,0.908187,-0.192696,0.246847,-0.827831,-0.171750,-0.504037,-0.348761,0.036631,0.639186,-0.341214,-0.321951,-0.539079,0.179392,-0.409155,-0.447719,1.169203,-0.058983,-0.781368,0.234487,-0.184571,-0.852805,0.021828,-0.003953,-0.201968,-0.871849,0.048800,-0.331874,-0.039888,-0.121569,0.710443,0.711561,-0.078987,-0.899737,-0.252586,-1.297408,0.378580,-0.366421,-0.089372,0.415051,-0.079737,0.100345,0.515641,0.405632,0.706708,0.004366,0.347366,-0.069303,-0.077441,-0.468331,-0.868140,-0.053115,0.291568,-0.304904,-0.908008,-0.750847,-0.058697,0.275496,0.605338,0.352343,0.653492,-0.669370,0.394627,-0.235696,-0.066624,0.111110,0.455755,-0.270637,0.348768,-0.266038,0.162344,-0.227597,0.144202,0.471018,-0.586194,-0.365820,-0.527157,-0.792504,0.141806,-0.527009,-0.744816,0.579570,-0.689975,0.501399,-0.528624,-0.767218,0.782264,0.192089,0.504600,-0.391407,-0.131902,-0.251173,-0.479420,-0.502142,-0.095725,-0.951509,-0.413867,-0.047539,-0.128491,-0.977760,0.743045,-0.268461,0.079986,0.348418,0.826880,0.030605,-0.505508,-0.952220,0.413108,-0.664318,-0.157376,-0.151097,-0.149999,-0.152007,-0.849218,0.297255,0.520605,-0.080978,-0.355450,0.386977,0.833612,0.315949,0.384278,0.297639,0.862017,0.315785,-0.322560,-1.152928,-0.179896,0.488811,-0.303319,0.815916,-0.710569,-0.870314,-0.186700,-0.416324,0.638648,-0.895785,-0.300144,-0.155064,-0.766306,-0.111384,0.412236,0.178200,0.675718,0.254902,0.336162,0.274026,0.064348,-0.973113,0.333092,-0.733703,0.589921,0.370407,-0.299749,-0.412167,0.060861,-0.711964,0.318571,-0.055895,-0.228615,0.565899,0.254082,0.143697,0.715877,0.525185,0.673413,-0.345872,-0.871780,-0.554945,-0.010276,-0.392580,-0.104469,0.002743,-0.245461,0.388753,-0.247316,-1.160066,-0.036447,-0.904269,-0.099660,-0.379292,0.080025,0.767386,0.152206,-0.814195,0.143268,-0.071258,-0.561211,0.532398,0.246343,-0.020207,0.188933,0.006985,0.356978,-0.473115,0.573646,0.420149,-0.723727,0.800319,0.398334,0.352669,0.616627,0.676155,0.192325,0.424464,-1.037211,-0.585849,0.524108,-0.383937,-1.041050,-0.575584,0.515422,-0.113158,-0.239927,-0.267182,-0.396921,-0.986246,0.021050,0.141253,0.134907,-0.437170,-0.742460,0.020676,-0.228947,0.550884,0.158904,0.402693,-0.342835,0.728276,0.269759,1.414435,0.878156,-0.064590,0.845038,-0.220729,0.083075,-0.076499,0.362934,0.120112,-0.623872,-0.344477,0.392680,-0.494643,0.196406,0.651563,-1.181902,0.620440,-0.361132,-0.454524,0.332566,-0.148161,-0.021625,0.133194,0.376594,-0.230461,0.412570,0.566791,0.420166,0.033397,0.337557,-0.383705,0.419648,0.490172,-0.023868,-0.572528,0.418946,-0.584754,-0.219053,0.245840,-0.840926,0.592792,0.952695,0.621592,0.460345,0.566863,-0.388100,-0.264532,-0.424987,-0.036902,-0.667677,0.581990,-0.081301,0.276098,0.573940,-0.162320,0.443020,0.241131,0.206795,-0.125072,-0.660717,0.311950,0.152513,-0.168070,-0.384796,0.044741,0.295416,-0.413474,0.272481,0.908228,0.836474,0.143348,-0.505763,-0.108267,0.147917,-1.096469,0.782776,0.365768,-0.226275,-0.150441,-1.020249,0.200829,-0.104575,0.590216,-0.224787,0.538272,0.033957,-0.245359,0.349897,0.697018,1.265887,0.155330,0.203088,-0.463928,0.271056,-0.767684,0.297042,0.101385,-0.468627,0.482971,0.008953,0.280608,-0.171823,0.114099,0.645934,-0.048676,-0.184749,0.617656,0.173148,0.120639,-0.285599,0.515847,0.494528,-0.828502,-0.457503,-0.302184,-0.392292,-0.440018,0.237662,0.673322,0.771876,0.359564,0.260480,-0.173328,0.439239,-0.512444,-0.312129,-0.421108,-0.214186,-0.273469,0.069075,0.931019,-0.276189,0.593082,-0.945494,-0.333061,0.247472,-0.220590,-0.713501,0.144937,-0.127319,-0.790084,0.239205,-0.478078,-0.546994,0.058729,1.265820,-0.677251,-0.728574,-0.853538,-0.318724,0.370603,-0.183929,-0.325973,0.150130,0.214810,-0.654697,-0.678502,-0.164171,-0.334141,-0.618960,0.084268,-0.786901,0.058505,-0.296396,-0.452290,0.038427,-0.479629,-0.091492,0.242627,-0.249030,-0.303342,-0.590365,-0.321275,0.304065,-0.231881,0.339539,1.246516,0.136019,-0.268613,-0.736718,0.110964,0.267637,-0.489405,0.166325,-0.508368,0.254153,-0.062916,-0.446555,0.496004,0.670489,0.212863,-0.095674,-0.229350,-0.300793,0.745692,-0.855330,0.252624,-0.316782,0.676111,0.180807,-0.835354,0.460018,0.366784,0.148768,-0.359150,0.933672,-0.340021,-0.092827,0.300177,0.325373,0.081269,-0.609177,-0.433712,0.063496,-0.346978,0.225542,1.070212,-0.597776,0.161385,0.416954,0.135832,-0.597546,0.542352,-0.727243,0.420398,-0.030670,-0.381928,-0.188460,0.007512,-0.783880,-0.373956,-0.450947,-0.035250,-0.696346,-0.213393,0.134342,-0.807015,0.312621,0.419126,-1.066075,-0.987193,0.610365,0.279194,-0.372309,-0.400902,-1.187820,0.155551,-0.110901,-0.428393,-0.062144,0.124838,-0.745266,1.699244,-0.077520,-0.635879,0.243797,0.050045,-0.466572,0.107809,-0.336978,0.252423,0.215646,0.321127,-0.381946,-0.460427,0.548048,0.262069,-0.469654,0.032128,0.389496,-0.123975,-0.558702,-0.017275,-0.756401,1.146233,0.053108,-0.327083,0.409819,0.132648,-0.037176,0.179918,0.204242,-0.227683,-0.108652,1.020719,-0.691965,0.804921,0.132332,-0.193584,-0.440549,0.003129,0.317133,0.439267,-0.546600,-0.688688,-0.020815,-0.921875,0.370953,0.634808,-0.786268,0.392037,0.375466,0.487872,0.187382,-0.038211,0.001507,-0.658102,1.215441,0.692017,0.251913,-0.726691,-0.510271,0.128398,0.512405,-0.051778,0.383341,-0.183021,0.165370,0.283887,-0.019748,-0.060547,1.017991,0.274753,-0.684707,0.102133,-0.021814,-0.320320,0.333943,-0.208727,-1.423101,-0.762686,0.462291,-0.220903,-0.112155,-0.114447,-0.466261,-0.670331,-0.466362,0.068307,0.231522,-0.289829,0.799491,-0.334063,-0.091405,-0.298593,-0.165305,-1.795020,0.008110,-0.424165,-0.566930,-0.202088,-0.257928,0.047769,0.591115,-0.242823,-0.135723,-0.671115,-0.379891,-0.042204,0.667825,1.087867,-0.366065,0.286433,0.164548,0.053099,-0.273061,0.396060,-0.405771,-0.225617,0.975205,-0.084529,0.516591,0.425989,0.520194,-0.831885,0.298653,0.201230,-0.390337,0.355135,-0.928201,0.112410,-0.030958,-0.209813,0.425806,0.279810,-1.001581,0.505095,-0.114937,-0.415590,-0.440958,0.003199,-0.428071,0.751943,-0.000821,-0.006841,0.057415,0.249149,0.186703,-0.050083,-0.286842,0.327876,-0.054196,-0.126422,0.055912,0.650100,-0.445631,0.150584,0.477387,-0.695359,-0.590130,-0.179644,-0.621345,0.363593,-0.390922,0.428681,-0.337848,0.939509,0.299884,-0.433155,0.524992,0.009210,-0.335886,-0.086895,0.574946,-0.570908,0.073963,0.114514,1.717730,0.471579,0.051141,-0.752418,-0.498048,0.342562,-0.773498,0.272506,-0.017992,-0.222784,-0.613658,0.849436,0.395820,0.227068,-0.576323,0.858275,0.033055,0.365123,-0.138267,0.674539,-0.260621,-0.056314,0.431923,0.364595,-0.656836,-0.546895,-0.303707,0.168319,-0.955544,0.380215,-0.325541,-0.651888,-0.592709,-0.279329,-0.410626,0.029384,0.174130,0.245546,0.060916,0.247925,-0.418028,0.233281,-1.243943,-0.161438,0.640389,-0.430730,0.522344,-0.022908,-0.561308,0.619497,0.027688,0.366481,0.434815,0.895646,0.548303,0.248283,-1.061082,-0.217528,-0.304635,-1.000397,0.741155,0.487032,-0.043227,0.719221,0.102597,0.444915,0.236530,-0.445726,0.145455,-0.115163,-0.017161,-0.092999,-0.259651,-0.130086,0.153086,-0.081250,-0.192345,0.031216,-0.022196,-0.624536,-0.724403,-0.119199,-0.035368,0.023704,0.021834,-0.794007,-0.124210,0.683894,-0.189477,0.556994,0.366814,0.294542,0.196683,0.423159,-0.798805,-0.006466,0.460501,0.149958,0.808879,-0.668205,-0.567469,-0.434452,0.570656,0.060122,-0.018206,0.249614,0.571820,0.214691,0.309782,0.405394,0.712351,0.027064,0.285085,0.639414,0.350782,0.943733,0.056791,-0.237110,0.940031,0.617961,0.823051,0.372280,0.427505,-0.802055,0.575002,-0.587499,-0.551029,0.483744,0.492431,0.871103,-0.372588,-0.756005,-0.437537,-0.170476,-0.259652,0.033631,-0.086747,-0.933717,0.398759,0.728724,-0.640195,-0.271493,0.042582,0.124367,-0.251279,0.089683,0.100805,0.023618,-0.466508,0.515571,0.676384,-0.203081,-0.743113,0.284153,-0.300552,0.884534,0.775698,-0.000680,0.033642,-0.796451,0.182601,-0.226848,-0.640991,-0.094840,1.007069,0.266327,0.024434,-0.780820,-0.860007,-0.021454,0.845709,-0.185801,-0.226138,-0.303872,0.722725,0.107109,0.257886,-0.376778,-0.175889,-0.039125,0.119670,0.093083,0.220770,-0.413942,0.595790,0.561095,0.198134,0.554162,-0.137654,0.378587,0.634660,0.007105,-0.204890,0.890567,0.021467,-0.490628,-0.258310,1.241145,0.483643,0.034974,0.719565,-0.070673,-0.479175,0.128906,-0.235312,0.640850,0.008862,0.253381,1.019088,-0.265237,-0.544116,0.689353,0.172751,0.147988,0.478039,-0.694035,0.899617,1.202358,-0.520254,-0.806209,-0.461095,0.871052,0.514908,0.297646,-0.308983,-0.191967,-0.197020,-0.251006,-0.896263,0.459792,-0.281338,0.246545,-0.478405,0.782550,-0.888046,-0.121137,0.115566,-0.165894,-0.002795,0.445418,0.149466,0.048808,0.356839,-0.272001,0.317226,-0.377367,0.198879,-0.335581,-0.403625,0.971791,0.351082,0.784616,-0.145184,0.006325,-0.256414,0.137939,0.990055,-0.894803,0.827263,0.866465,0.306427,-0.854201,0.200225,-0.741168,-0.481631,0.303121,0.340650,-0.471799,0.286215,-0.908467,-0.548132,-0.023051,0.034144,-0.728622,-0.351510,-0.099092,0.444518,0.442895,0.141398,-0.471176,0.362156,0.115833,-0.020472,0.616864,0.363577,0.602932,0.658452,0.500665,-0.518696,0.339509,0.151155,-0.616494,0.730027,-0.703911,0.448800,-0.967689,-0.363816,0.022567,-0.152540,-0.588092,-0.375247,-0.357662,-0.175773,-0.639500,0.378313,1.438844,-0.505250,0.651391,0.508729,-0.712067,0.680971,0.293319,0.452613,0.457838,0.119087,0.631062,0.415342,-0.111661,-0.304911,0.354172,-0.090390,-0.274831,0.484603,-0.195939,0.061542,0.140051,-0.059317,0.131276,0.164035,-0.126509,-0.045807,-0.138789,-0.357039,-0.381337,0.254054,0.127553,-0.270871,0.821376,0.439691,-1.303292,-0.589642,0.008762,0.496995,0.933605,0.551405,-0.992800,-0.396998,-0.483128,-0.710115,-0.024931,-0.324356,0.022167,0.354597,-0.361528,0.251813,0.717340,0.232448,-0.512050,-0.366192,-0.415786,0.485916,-0.402917,0.136498,-0.157459,1.092917,0.224463,0.167770,0.587663,-0.920795,-1.118746,0.280938,-0.589057,-0.691942,0.025714,-0.765702,0.139466,0.286777,0.141596,0.031806,0.385832,-0.137030,-0.536619,0.590419,0.007217,-0.176378,0.873156,-0.367034,-0.461986,0.083883,0.526318,-0.193377,-0.111249,-0.178874,0.015874,-0.861764,-0.439184,-0.769244,-0.419464,0.036110,-0.388953,0.697720,0.086827,0.250606,0.284731,-0.770392,-0.530509,-0.323045,-0.660821,-0.251139,0.440143,0.055696,0.051063,-0.308670,0.382810,-0.518297,-0.540260,0.428868,0.016619,-0.514260,1.013361,0.247132,0.431686,-0.363636,-0.080270,0.052336,0.126505,-0.878513,0.648395,0.358847,-0.310706,0.168381,0.720940,0.361135,0.500574,0.119693,-0.008499,-0.449375,0.383341,-0.181460,-0.200026,0.324684,0.051552,0.385075,-0.831311,0.683741,-0.553473,-0.034629,0.894655,0.903032,0.128042,0.016538,-0.621770,-1.184019,-0.933339,0.465566,-0.251713,-0.381443,-1.195037,-0.616947,0.253564,0.167792,0.992284,-0.232903,-0.045019,0.651303,-0.403567,-0.681060,0.076958,0.376639,0.427520,0.515110,-0.829365,0.753875,-1.009197,0.803921,-0.258351,0.392987,-0.123842,-0.436104,1.108802,0.044449,0.714804,-0.743248,0.262538,0.365720,-0.117458,-0.137498,0.517516,-0.301584,-0.230269,0.040040,-0.374027,-0.253277,0.373157,-1.024859,-0.542984,0.170606,-0.056287,0.531784,0.124764,-0.095967,0.104527,0.031821,-0.270650,0.358196,-1.060696,0.498371,0.381714,0.750678,0.581131,0.209172,0.284260,-0.477958,-0.125052,-0.732966,-0.636932,0.079504,0.139538,0.532129,0.360575,0.462600,0.860744,-0.214540,-0.180767,0.118748,-0.739839,-0.676042,0.127221,0.497244,-0.196233,0.500609,0.054654,-0.163057,-0.468962,0.575309,-0.178398,-0.061821,0.315320,0.262512,-0.082452,-0.372786,0.086770,-0.012683,0.357435,0.096147,-0.756390,0.280173,0.467801,0.425766,-0.327732,-0.045705,0.450915,0.478072,0.286530,-0.207763,0.528422,-0.203438,-0.574016,-0.080326,0.059771,-0.050836,0.460270,0.199437,0.788743,-0.058281,-0.080063,0.485583,0.060240,0.043215,-0.182924,0.500688,0.367221,-0.340788,-0.706405,-1.004924,-0.010573,-0.227876,-0.143124,-0.262234,-0.266777,-0.637283,-0.663573,-0.197853,0.688605,-0.157303,-0.412084,-0.410786,-0.593014,0.034290,-0.537985,0.165519,-0.018794,-0.514826,-0.199447,-1.041524,0.299315,-0.092650,-0.114175,-0.153031,0.242277,0.240319,0.230765,0.234351,-0.079106,0.677136,-0.055452,-0.244410,0.456975,0.550541,0.532694,-0.491203,-0.416617,-0.045306,-0.115657,-0.924974,-0.368665,0.158045,0.564260,-0.005099,-0.874483,0.679529,-0.743582,0.385332,-0.470206,-0.736002,0.465340,-0.400619,0.353620,-0.052935,0.290507,-0.175489,0.875635,0.319087,0.544085,0.901371,-0.265799,1.079813,0.012797,0.029019,-0.455675,-0.255934,0.413472,0.097832,0.487134,-0.144295,-0.057716,-0.770883,0.404568,-0.232762,0.577786,0.364556,-0.379853,-0.093751,1.216039,1.073218,-0.138229,0.154687,0.335462,-0.493181,-0.595206,0.112312,0.056534,-0.007371,-0.351761,-1.048421,-0.516621,0.641234,0.695790,-1.119444,-0.425789,-0.146635,-0.180557,-0.173074,0.518737,-0.389452,0.149205,0.922633,0.356413,-0.089792,0.453849,0.276704,0.165058,-0.272615,-0.232791,-0.841074,-0.303372,-0.839354,0.695030,-0.403752,0.670406,0.000856,0.350890,0.571761,-0.766391,0.656168,0.956889,0.177773,1.363107,0.170527,0.021973,-0.628255,-0.616135,0.639390,0.160298,-0.065777,-0.060363,-0.386743,0.293454,0.285930,0.684485,0.160568,-0.558134,1.114038,0.087970,-0.365625,-0.513849,0.492936,1.014710,-0.660908,-0.444163,0.233881,-0.285060,0.299029,0.507201,-0.540470,-0.838630,0.073538,-0.322648,-0.436610,1.405548,-0.137319,0.646367,0.171640,0.380446,-0.588584,0.442727,-0.609483,-0.679141,-0.205725,-0.059299,-1.071268,-0.316037,0.036447,0.637204,-0.563296,-0.361075,-0.570498,-0.409765,-0.986958,-0.275147,-0.799165,0.627679,0.436448,0.052432,-0.004408,0.122871,0.599259,0.070940,0.051284,-0.937905,-0.358782,0.616737,-0.256935,-0.204548,-0.029430,-0.196030,-0.622008,-0.388595,0.235287,0.473398,-0.299343,0.692698,-0.098952,0.032544,0.196448,-0.188478,0.945903,-0.147678,-0.303666,0.194073,1.342350,-0.010090,0.136795,0.064664,-0.028940,-0.367337,-0.512208,-0.483695,0.445879,0.398978,-0.249435,0.630527,0.664317,0.143157,-0.815646,-0.192986,0.224652,-0.099622,0.030120,-0.243039,-0.964094,0.054770,0.127927,-0.829514,0.634239,-0.442618,0.082725,0.212127,-0.406933,-0.026986,0.003921,0.921544,0.130895,0.905236,-0.074119,-0.102769,0.905044,-0.058718,-0.440204,0.376762,0.078299,0.472388,-0.576978,-0.553845,0.281507,0.179662,1.068108,-0.383808,0.687572,0.770741,0.067094,-0.170173,-0.057985,-0.316400,0.291061,-0.208668,-0.766085,0.359639,-1.175434,-0.638826,-0.152248,1.046162,0.046293,-0.969891,0.357031,-0.805562,0.048693,-0.247441,0.033433,0.292697,0.961455,-0.535495,-0.494690,0.003059,0.761071,-0.387242,0.051755,-0.271067,-0.661238,-0.048019,-0.947328,0.071698,0.770866,0.588807,0.103315,-0.011255,-0.107896,0.419781,0.461459,0.413687,0.235401,0.178273,0.221023,0.387887,-0.403344,0.381176,0.746252,-0.343669,-0.012930,0.115610,0.124615,-0.421199,0.110708,1.263733,0.954223,0.550940,-0.055575,-0.528742,-0.053953,0.063451,0.032589,-0.651851,-0.598561,-0.157126,0.426937,0.195105,-0.290635,-0.919658,-0.919917,0.060970,-0.994803,-0.210790,0.331475,0.464916,0.497430,-0.404054,-0.022065,0.816426,-0.600809,0.407480,-0.298624,-0.406642,-0.359795,-0.477335,-0.176894,-0.266556,-0.290572,-0.007441,0.638434,-0.053516,-0.335033,0.079104,0.790097,-0.572512,0.197066,-0.089017,0.220330,0.718604,0.658518,0.374564,0.656941,0.113411,0.051713,0.115888,0.377308,-0.637122,0.140734,0.163806,-0.796138,-0.489573,0.411553,-0.063117,-0.607934,-0.422405,0.472258,-0.159019,-0.873711,0.010505,-0.059797,0.391702,-0.488969,0.070329,0.242284,-1.034198,0.024501,-0.039172,0.333865,0.280931,-0.301908,-0.450881,-0.064524,0.537819,-0.807379,-0.078093,-0.169437,-0.538940,-0.004175,0.759538,0.118549,-0.233280,-0.294753,-0.114360,-0.791086,0.114711,0.157510,0.766601,-0.227093,-0.051366,-1.299862,-0.049819,-0.942561,-0.613635,0.453975,-0.815392,-0.393865,-0.114711,-0.400429,0.267904,-0.681518,-0.352822,0.313605,-0.428805,-0.139344,0.099809,-0.287786,-0.312253,-0.035673,0.225285,-0.313404,-0.642205,0.151532,0.406646,0.194934,-1.353559,0.153629,-0.239860,0.493053,-0.446138,0.344154,0.788572,-0.609084,0.022668,0.146487,0.332012,-0.081058,-0.088490,-0.220277,-1.286863,-0.483984,-0.356448,0.737516,-0.337906,0.102682,-1.410380,0.486234,-0.491292,-0.209716,0.466854,-0.277278,0.503360,0.652524,0.543568,-0.693645,0.047171,-0.010529,-0.498506,-0.366451,-0.468940,-0.136349,0.830027,0.069161,-0.214714,1.397406,0.568411,-0.812154,0.059253,0.058814,0.470791,-0.193666,0.881479,-0.423199,0.335287,0.089936,0.177070,0.669236,-0.333699,-0.430910,-0.800472,0.094785,-0.430086,-0.056364,0.116809,0.031018,0.664156,-0.550172,0.400353,-0.406182,0.045744,0.731460,0.608648,0.345430,-0.035207,0.167041,0.785638,0.165337,0.352373,-0.432960,0.014904,0.129102,-0.173329,0.235703,0.073402,-0.220882,0.316035,0.076258,0.255593,-0.262081,1.101243,0.690104,0.772496,-0.349852,0.496273,-0.147702,-0.665007,0.501034,0.312053,-0.031688,0.065318,-0.676851,-0.683405,0.122718,0.948537,-0.405462,-0.296397,0.412575,-0.293033,0.244368,0.057113,0.751836,-0.475151,0.739637,-0.709796,-0.367053,0.180450,0.767513,0.446516,-0.528478,-0.127034,-0.225004,-0.493362,-0.333347,0.582595,0.479306,0.930382,-0.355946,-0.903425,-0.568329,0.520480,0.133979,-0.558946,0.184511,0.266069,-0.920626,0.034860,-0.577761,0.179977,0.319932,0.202632,-0.583167,0.614942,-0.219058,-0.027388,0.553335,-0.223675,-0.079751,-0.018623,0.086704,-0.390333,-0.588236,0.083576,-0.574925,0.061509,-0.895936,-0.537436,-0.003375,0.007023,-0.281701,-0.923297,-0.401525,0.559491,-0.726420,0.229120,0.163717,-0.831058,-0.151639,-0.691711,0.452505,-0.536288,0.284395,0.091314,0.186892,-0.772418,0.154171,-0.098305,0.557731,-0.458618,0.009911,-0.051676,-1.130011,0.614468,0.779406,-0.345801,-0.040787,-0.739695,-0.395862,-0.012545,0.422228,1.072313,-0.125631,0.937252,-0.515845,0.251154,0.488435,0.071041,0.962937,0.548483,0.597934,-0.018776,0.358624,0.518627,-0.202681,-0.506577,-0.585568,0.308954,-0.653939,0.839448,0.328607,0.191537,-0.954987,1.209686,-1.993450,0.343277,0.585082,-0.623767,-0.026409,0.018489,-0.428032,0.128646,0.137491,-0.143241,0.353383,0.381211,0.805918,-0.527331,-0.828286,-0.750691,-0.175837,-0.252782,-1.098827,0.545140,0.168231,0.308315,-0.388492,-0.303491,-0.240491,0.451030,-1.074916,0.443137,0.449077,-0.159034,-0.257164,-0.643681,0.522392,-0.933500,-0.202107,0.614350,-0.715145,0.616527,-0.499575,0.633415,-0.176513,0.498141,-0.555625,-0.161511,-0.362920,0.137476,0.182651,0.085718,-0.136130,-0.033624,0.548104,0.422416,-0.006636,0.267518,0.152484,0.232579,0.017809,0.245053,-1.195456,0.728253,-0.206113,0.213301,0.050934,-0.080433,0.322615,-1.145679,-0.599252,0.122601,0.133256,-0.231963,-0.250923,-0.713001,-0.802282,0.136158,0.965888,-0.748831,0.219381,-0.583977,-0.240924,0.012256,-0.350636,-0.808472,0.073784,0.041955,0.077275,0.115722,-1.124660,0.038185,0.914961,-0.592555,-0.574605,-0.311448,-0.278602,1.145180,-0.351899,0.134142,-0.673155,-0.439714,-0.164603,0.074479,0.061459,-0.048580,-0.549033,0.737293,0.415023,0.153005,-0.099627,0.532968,0.258089,-0.449681,-0.506200,-0.129725,-0.436266,0.027904,0.177443,0.093365,-0.124966,-0.241738,-0.066476,-0.483145,0.111179,0.321417,0.602611,-0.483365,-1.162365,-0.438852,0.252141,0.549246,-0.171518,-0.612931,0.082322,1.071774,-0.997548,0.228547,-0.364883,0.000686,-0.426156,-0.201542,0.064945,0.700912,-0.623734,0.423321,-1.395689,-0.515637,-0.426744,-0.120639,0.196444,-0.128537,-1.138462,0.031904,-0.045106,-0.331889,0.185944,-0.316866,0.116577,-0.599046,-0.256867,1.485536,0.320803,-0.609803,-0.248339,-1.299538,0.263156,-0.140210,0.077502,-0.247020,-0.154676,0.681099,-0.114405,0.183841,0.259488,0.346499,-0.262818,0.528442,-0.633089,0.032593,0.152130,0.346622,-0.196444,0.809144,-0.029159,0.302951,0.981510,-0.180011,-0.210484,0.499844,-0.406063,-0.291714,0.132004,-0.385698,-0.878248,0.004447,-0.069954,-0.182508,-0.564652,-0.407067,0.078476,0.124206,0.241572,-0.489726,0.029236,-0.757143,0.703861,-0.143748,-0.669868,-0.366435,-0.318597,-0.519631,0.178739,-0.576332,0.713762,0.072084,0.933738,0.309343,0.205504,0.462410,-0.581121,0.746029,0.091806,0.365143,0.296084,-0.292348,-0.358604,0.970536,-0.267824,-0.125878,0.326795
-0.134240,0.013365,0.089371,0.054798,-0.839818,-0.343678,0.412976,1.491909,0.643322,-0.000068,-0.001418,0.305270,-0.129088,-0.457136,0.034288,-0.682730,0.315018,-0.380590,-0.318016,0.933101,-0.695724,0.328570,-0.216687,-0.333540,0.182026,0.527310,0.166174,-0.507017,-0.455379,-0.693774,-1.051927,-0.321045,-0.452926,-0.131635,0.064064,-0.214823,0.626129,0.368641,-1.184082,0.272992,0.301168,-0.175908,0.255125,0.321180,0.150621,1.047724,0.605176,-0.247934,0.354663,0.495799,-0.335301,-0.570227,-0.331975,0.305999,0.365855,-0.111995,0.118455,0.353207,-0.364826,-0.457887,0.278603,-0.597866,0.288174,0.466852,0.568165,-0.327331,0.514599,0.139361,0.021008,-0.470497,0.089434,-0.636909,-0.185440,1.160042,-0.364354,-0.327425,-0.346083,-0.612213,0.794874,0.820223,0.161198,0.148490,-0.710734,-0.187229,-0.229958,0.410863,-0.215637,0.587151,0.037309,-0.964967,0.710235,-0.699794,-0.202360,-0.017518,-0.273308,-0.302512,0.687619,0.224052,0.408315,-0.133600,-0.329173,-0.562574,0.200229,0.268825,0.013763,0.411965,0.300848,0.407540,0.854678,0.883311,1.076360,0.319607,0.625259,0.050920,-0.331620,-0.402197,-1.093373,0.347531,-0.018091,-0.189931,-0.061212,-0.307059,0.368182,-0.289937,0.229586,0.268978,-0.343691,0.702343,-0.203765,0.539345,-0.460305,0.365702,-0.888299,0.212120,-0.644293,-0.098108,0.439630,0.807890,0.285864,-0.222505,-0.373332,0.054159,0.373445,0.707308,0.169760,0.777544,0.253439,0.020307,0.071188,-0.338145,0.183225,0.528709,-0.875750,0.005692,-0.586837,0.039548,0.428831,-0.495882,0.144278,0.244522,0.675673,-0.707144,0.787027,-0.416090,-0.096410,-1.011089,-1.061845,0.081091,0.794808,-0.293156,0.016122,-0.737641,-0.338295,-0.681538,-0.417214,0.675153,-0.046957,-0.058586,-0.067012,0.269346,0.158038,-0.224300,-0.725813,0.024608,-0.492306,0.348867,-0.485609,0.254707,0.043949,0.371771,-0.420971,-1.163226,0.280989,-0.523102,-0.186969,-0.159421,-0.677240,-0.416819,0.751966,0.024315,0.475503,0.372963,-0.655988,-0.620972,0.509803,0.737037,-0.154306,-0.291410,-0.610724,0.540521,-0.528515,-0.549373,-0.150844,0.553367,-0.016997,0.480842,-0.624246,0.066431,-1.081768,0.169618,-0.232856,0.649041,0.146685,-0.022536,-0.074705,-0.842815,0.096640,-0.363170,-0.002851,0.141537,-0.584861,0.519120,0.927990,0.479387,0.288027,-0.357324,0.174732,-0.476498,-0.304738,-0.471547,0.301812,-0.089480,-0.207390,-0.751872,-0.009718,0.132129,0.186701,0.346033,-0.292015,0.268749,0.072427,-0.781834,-0.286801,0.564500,-0.285506,0.320532,-0.070622,0.406483,-0.191022,-0.375566,0.533152,-0.110964,0.340561,-0.699907,0.727237,-0.486449,1.094390,0.000130,-0.150061,0.496719,-0.501497,0.464821,1.150013,0.090041,1.162686,-0.370640,-0.055306,1.047733,-0.228818,0.333878,-0.303896,-0.610366,0.289842,-0.470296,0.424799,0.257117,-0.353161,0.226463,0.059386,0.104003,0.823045,-0.172017,0.153002,-0.095259,-0.158056,0.516797,-0.016456,-0.336150,0.267807,-0.273553,0.087629,0.586136,0.118640,0.158774,-0.244404,0.580732,0.195135,-0.175397,0.164512,0.215596,0.217602,0.117471,-0.501167,-0.849509,0.850397,-0.465414,0.263139,-0.344290,-0.657830,-0.043831,0.375364,-0.492389,0.387796,0.124291,0.523990,0.160605,-0.424423,0.327783,-0.695169,-0.183058,-0.537015,0.352722,-0.603019,0.183055,-0.917477,0.563317,0.927796,-0.309155,0.813682,-0.435719,0.216844,0.211828,-0.732108,-0.614935,0.792256,-0.100176,0.298973,0.778956,-0.116680,-0.332178,-0.031979,-0.268796,0.185881,0.315891,-0.165312,0.418253,0.304493,0.043376,-0.178152,-0.324525,-0.443325,0.272805,0.412792,-0.153326,0.359636,-0.892370,0.277898,0.580222,0.419541,-0.189343,1.044908,-0.226736,0.748533,0.501335,-0.792175,0.544960,0.948153,-0.808974,-0.747497,-0.359342,0.197849,-0.776195,0.684705,0.294663,-0.195159,0.097081,0.165609,0.044421,-0.296029,0.065438,0.450562,-0.280736,0.247376,0.490177,-0.845196,0.078490,0.161918,0.463876,0.536729,-0.822717,-0.212030,-0.201580,0.319968,-0.281965,-1.221528,-0.522365,1.231745,0.255504,-0.157894,-0.341104,0.189018,-0.090621,0.062399,-0.142296,-0.173599,-0.593738,-0.668167,-0.183903,-0.121692,1.399895,0.529329,-1.084858,0.344764,-0.378327,-0.588083,-0.215264,0.288286,0.347531,0.583207,0.017544,0.036846,0.297128,-0.124793,0.712654,-0.008548,-0.527573,-0.117585,0.035883,0.337251,0.348620,-0.068275,0.156030,0.068397,-0.516578,0.658911,0.863441,0.647330,0.050041,1.214680,-0.233336,0.691380,0.729232,0.314283,-0.891803,-0.082408,0.777970,0.523868,0.404298,-0.496413,-0.684275,0.538285,-0.728168,-0.209398,-0.173619,-0.851825,-0.011898,-0.924096,0.114351,-0.673195,-0.733828,0.098824,-0.253351,0.193920,-0.230978,-0.419851,0.189358,1.034279,1.562253,0.736153,-0.016298,0.309836,0.513795,-0.064628,0.392991,0.173420,0.336385,-0.044741,0.358612,0.891623,-0.200455,-0.288964,-0.491569,-0.068883,-0.322580,0.219881,0.003044,-0.470077,-0.299097,0.291569,-0.570851,0.272787,-0.260521,-0.495797,0.100755,0.236970,0.368692,-0.155173,-0.339833,-0.554229,-0.188556,-0.681042,0.608455,-0.483843,-1.205614,0.916950,-0.724767,-0.033951,-0.063743,-0.562608,0.387659,0.474153,0.751465,-0.151308,0.438211,-0.278188,0.266700,-0.135703,0.944045,-0.516739,0.924976,0.687320,-0.439383,0.596345,1.334900,0.453672,-0.660237,0.378651,0.077554,0.126179,0.514720,-0.125165,0.211147,0.414683,0.058144,-0.347979,0.923213,-0.295182,0.361989,-0.560809,0.679778,0.227857,-0.128069,0.072695,-0.190909,0.280881,0.018021,0.068137,-0.347200,-0.485422,-0.731319,-0.062761,-0.294964,-0.016029,-0.489106,0.706936,0.433470,0.142003,-0.982190,0.446274,0.169047,-0.620166,-0.839302,-0.010690,-0.337086,-0.149162,0.296605,-0.716924,-0.551818,-0.015446,-0.610125,-0.637962,-0.107970,-0.235244,-0.801050,0.021157,0.295027,0.151172,-0.972607,-0.507373,0.569375,0.149921,0.276194,0.298293,0.294362,1.069329,0.195464,-0.177142,0.049092,0.192787,0.078649,-0.057800,-0.117606,0.024630,0.237858,-0.004204,0.177354,0.281809,0.096487,-0.541139,0.120671,-0.376715,0.309602,-0.092633,-0.097878,-0.067102,-0.160043,-0.083816,0.425262,0.867749,0.405614,-0.170821,-0.421714,-0.263887,0.755764,0.347218,0.060866,-0.382873,0.074336,0.782540,0.587417,-0.152415,-0.257633,-0.453378,-0.106032,-1.951313,0.351549,0.924754,0.840488,0.234036,-0.385726,-0.036103,1.280444,-0.081999,0.094406,0.306898,0.912770,0.252606,-0.405009,-0.296475,-0.130325,-0.156962,0.670104,0.157494,-0.576893,-0.337995,0.033364,0.508031,-0.662237,-0.174772,-0.325577,0.413341,0.017833,0.387538,0.032134,0.116596,0.224124,-0.002199,-0.259119,0.274582,0.064661,-0.338215,0.268072,-0.173061,-0.089609,0.076001,-0.158895,-0.389113,0.357351,-0.373690,0.071016,0.102005,0.405453,0.561743,-0.121559,0.084181,-0.328930,0.242781,0.592484,-0.408811,-0.717674,-0.159906,0.418256,0.201391,-0.390957,0.326063,-0.026408,0.524355,-0.321992,0.405264,0.131756,-0.972045,-0.886484,-0.329504,0.780854,-0.021644,-0.346124,0.645835,-0.261143,-0.918730,-0.336833,0.592249,-0.153316,0.329876,-0.288072,0.602031,-1.055538,-0.612420,-0.218021,-0.029290,-0.118093,-0.087296,-0.017782,0.100792,0.130411,0.110904,0.322053,0.442924,-0.634428,0.155787,0.168871,0.186288,0.243465,0.857228,0.322065,-1.195069,-0.196882,-0.099525,0.365320,-0.332254,-1.222795,-0.170635,0.301153,-1.062612,-0.487845,0.568710,-0.216896,-0.529697,-0.314413,-0.186447,0.666903,-1.021163,-0.152974,-0.560719,0.573063,0.690910,0.497658,-1.144109,0.445325,0.118930,1.428979,-0.587477,0.687985,0.962913,0.467875,-0.067129,-1.113952,0.063437,-0.392589,-0.804637,0.836837,-0.542853,0.298796,0.219220,0.954815,1.004974,0.161006,0.066027,0.164442,-0.285026,0.201959,0.340795,0.721843,0.113834,0.167584,-0.813812,0.003358,0.059115,-0.182943,-0.731059,-0.185199,-0.049172,0.207596,-0.230526,-0.003607,-0.402422,0.785691,-0.360627,-0.502521,-0.648647,-1.266504,-0.299513,1.163533,-0.352959,-0.339942,0.102622,0.205590,-0.108502,-0.144633,-1.081821,0.190054,-0.459476,0.861577,-0.760845,-0.425511,0.039043,-0.092104,-0.526559,-0.179574,0.044980,-0.767518,-0.126159,-0.015527,0.538028,-0.472679,-0.226922,-0.308902,-0.743153,0.389285,0.213216,-0.407471,0.010645,-1.014803,-0.369986,-1.131778,-0.762316,-0.022072,1.083647,0.690923,-0.486580,0.486575,-0.784591,-1.009292,-0.203094,0.541497,0.235061,0.030197,0.125935,0.274291,0.320048,0.029411,0.003080,-1.350504,0.586655,0.262569,-0.279940,-0.480519,0.863532,-0.008337,-1.291919,0.073358,-0.476002,-0.194382,0.543986,0.454209,-0.133661,0.092554,-0.440917,0.145261,0.239641,0.370732,-0.235797,0.622900,0.429833,0.331359,-0.323242,-0.002655,0.926533,0.480374,-0.028014,-0.246019,0.215714,0.232546,0.276046,-0.500111,-0.102091,-0.087914,-0.378683,0.409862,-0.696158,-0.430313,0.412883,-0.064509,0.477291,-0.079562,-0.410135,-0.812049,0.195038,-0.034835,0.359967,0.010367,0.870509,1.218483,0.359671,0.097874,0.132679,-0.506655,0.679204,-0.223741,1.372717,0.040766,-1.053430,-0.043664,-0.555740,0.493144,0.375781,0.345688,0.062547,0.464783,0.276477,-0.435124,0.419639,-0.386457,0.569444,-0.618904,0.044599,-1.173254,0.084611,-0.770021,0.547310,-0.889041,0.041773,0.430773,-0.705140,-0.442973,0.100719,-0.079458,0.874627,-0.140230,-0.501209,0.131041,-0.612557,0.152705,0.377124,-0.178774,-0.049953,-0.195805,-0.531048,0.123465,0.439817,-0.067461,-0.072502,0.103373,-0.398624,0.131885,-0.430848,-0.610416,0.428371,1.079021,-0.307262,-0.548045,0.941843,-0.565284,0.627868,-0.603189,0.312399,0.084046,-0.248706,0.515582,0.866598,-1.153021,0.016677,-0.590028,0.862085,-0.205054,0.492908,-0.134126,-0.547647,0.224551,-1.013696,-0.131429,-0.147210,0.447912,0.463125,-1.125116,-0.656538,0.702896,-0.092727,0.056782,-0.739720,-0.126882,0.164686,0.004398,0.232416,0.129198,0.074962,-0.190760,0.181019,0.686112,-0.149302,0.600259,0.640608,0.171872,-0.535230,-0.036533,-0.107877,0.305442,-0.226852,-0.623505,0.652596,0.618982,0.467539,0.143853,-0.626779,-0.112466,0.059292,-0.511082,0.066179,-0.145756,0.048575,0.647182,-0.597287,0.474645,-0.880158,-0.345476,-0.386068,-1.215335,-0.810914,-0.122524,0.539309,0.607822,0.526984,-0.103708,0.177161,-0.348144,0.371588,0.426482,1.433726,-0.524189,0.320814,-0.699824,0.039894,0.763416,-0.140712,0.499210,-0.305134,-0.048317,-0.098598,-0.479867,-0.187631,0.620205,0.982194,0.722726,-0.407103,0.254382,0.036548,-0.099588,-0.532786,0.048263,-0.356369,-0.116154,0.375577,-1.219745,0.437213,-0.052685,0.183759,0.075535,0.218759,0.517177,-0.224832,0.529971,-0.011568,-0.636750,-0.080160,0.348773,-0.139459,0.165128,-0.437217,0.364271,-0.284292,0.818999,-0.413654,-0.390484,0.148992,0.352262,-0.525364,-0.633057,0.183669,-0.142449,-0.433456,0.465202,0.822011,-0.507389,-0.677051,0.090459,0.272518,0.773293,0.519033,0.339206,0.348178,-0.640396,-0.410554,-0.316107,0.033972,-0.132819,-0.435213,-0.676480,0.531658,0.030606,-0.965695,-0.990144,-0.126385,-0.867706,1.046367,-0.602234,-0.125604,0.075552,0.260789,1.030046,0.189594,0.688984,-0.006401,-0.334668,-0.415157,0.153724,-0.655347,0.848382,-0.196822,0.350220,-0.048591,0.760922,0.302096,0.140878,0.514848,-0.758846,0.146220,0.188806,0.050643,0.141232,-0.059495,-0.515458,0.490923,-0.364119,-0.096761,0.666432,-0.207843,0.273809,-0.461183,-0.667822,0.349825,-0.266054,-0.155908,0.282038,0.150348,0.308399,-0.784472,-0.922138,-0.065219,0.607424,-0.352992,-0.108459,0.058010,-0.749358,-0.421991,0.388473,-0.342974,1.108610,-0.540746,0.676254,-0.157421,0.304085,-0.616840,0.451384,0.268727,-0.100695,-0.079354,0.387462,0.211150,-0.511435,-0.729515,-0.446117,-0.518817,0.431086,-0.075695,-0.021548,0.210417,0.482465,0.933881,-1.144628,-0.472041,0.447925,-0.718768,-0.579888,0.760574,0.347139,-0.570867,0.611165,-0.511046,-0.042315,-0.147137,-0.092548,-0.219410,0.415969,-0.075985,-0.036129,0.328217,0.588000,0.302988,0.011722,0.215038,-0.497455,-0.856081,0.329693,-0.394011,-0.660998,1.099293,-0.415988,-0.024597,-0.172936,0.139429,0.484503,-0.542001,1.066248,-0.500645,0.102380,-0.647003,-0.499733,0.851384,0.022026,-0.269433,0.158025,-0.237684,-0.004815,-0.245968,-0.121361,-0.548119,0.004270,1.217843,-0.378587,0.466368,-0.147534,0.172706,-0.611567,-0.706902,0.455470,0.189919,-0.152229,-0.481197,-1.077176,-0.127624,-0.297352,0.482719,-0.936679,0.057743,-0.318854,0.757162,-0.087457,0.222938,-0.450692,0.647516,-0.515633,0.629101,0.064180,0.282566,-0.671284,-1.098721,-0.138439,-0.136807,-0.232663,0.420794,-0.117156,-0.854141,-0.281293,-0.358799,1.073945,0.080650,-1.111199,-0.272070,0.122794,0.445489,-0.175751,-0.609069,-0.155473,-0.329602,0.524047,-0.308586,0.051420,0.740967,-0.093846,0.500895,-0.476417,1.018772,0.520397,-0.492082,-0.671800,-0.315995,-0.293816,0.617594,-0.584427,0.340100,-0.132200,-0.426870,0.123452,-0.640920,-0.492816,-0.265606,0.617297,0.891532,0.178265,-0.252967,-0.316653,0.313989,0.027486,-0.821961,0.321435,0.419339,-0.689375,-0.715037,-0.222065,0.817621,0.215555,-0.620706,0.709677,-0.242585,0.836195,-0.103759,-1.005589,0.422044,-0.491739,0.141303,-0.290720,-1.221975,0.345535,0.153258,-0.387455,-0.229435,1.058320,-0.714028,-0.368826,-0.920374,0.200155,0.183826,0.247427,0.140436,-0.224639,0.666662,-1.093174,0.414471,0.360054,-0.434214,-0.972368,-0.401368,0.087794,-0.838417,0.521049,0.189017,-0.179997,0.221075,-1.092507,0.317411,0.074986,0.651699,0.394007,0.087981,0.698043,-0.719323,0.417458,-0.741896,0.307961,0.417988,0.721385,0.459248,-0.130803,-1.272459,-0.138208,-0.393930,0.389281,0.196496,0.653387,-0.505285,-0.040484,0.029536,0.323601,-1.196645,-0.478148,0.602229,0.418429,0.209610,-0.533922,0.944800,-0.636578,0.870079,0.122143,0.107482,-0.078988,-0.181343,0.459734,-1.457562,0.798121,-0.257820,-0.260725,-0.611782,-0.491531,-0.418509,0.087780,0.091565,-0.145442,0.544036,0.254890,-0.174434,0.429398,0.552607,0.663906,-0.290684,-0.943227,-0.273265,-0.092776,-0.147741,-0.682144,0.352576,0.100954,-0.645641,0.300028,-0.344559,-0.112204,-0.639037,0.155058,-0.261634,-0.154056,0.452011,-0.091055,-0.539826,0.170732,-0.094173,-0.071690,-0.620657,-0.126535,-0.352538,-0.536286,-0.094364,0.592564,0.461584,0.270836,1.634413,0.776468,-0.071531,-0.644153,0.347290,0.790050,-0.703291,-0.628457,0.501735,0.206376,-0.478081,0.228836,0.033125,0.450040,0.084586,-0.519245,-0.221393,0.443400,0.708266,-0.239826,0.233621,0.111043,-0.422450,0.095224,0.371142,-0.651599,-0.179439,0.434623,0.081177,-0.265861,0.149192,-0.325339,-0.368030,0.099720,-0.691817,0.801682,0.809962,-0.071836,-0.193789,-0.308463,0.403026,0.378746,0.347076,0.000261,-0.654580,0.294759,0.718407,-0.563496,-0.094381,0.837048,0.658955,0.062827,-0.259403,-0.151062,0.010346,0.089625,0.599858,-0.193913,-0.161248,0.192399,-0.798947,-0.417946,-0.928806,-0.773299,-0.778054,0.161258,-0.547676,-0.358203,-0.699735,-0.195366,0.524668,-0.010019,0.491460,0.762978,-0.127371,0.065656,-0.228137,0.257147,0.088436,0.779005,-0.175297,0.210328,0.178730,-0.625428,0.172264,-0.324323,0.355240,0.645051,-0.560000,-0.111514,-0.188526,0.920901,0.690511,0.413822,0.177383,0.525765,-0.167786,-0.511185,-0.394705,-0.396058,0.368904,-0.716399,-0.880448,-0.036351,0.548161,-0.500713,0.046673,-0.410630,0.076981,-0.786442,-0.460917,-0.700132,-0.081726,-0.585164,0.391044,-0.473653,0.247689,-0.320614,-1.282838,0.103663,-0.199880,-0.596421,0.511028,-0.817095,-0.019633,0.109427,-0.185820,-0.084759,0.029892,-0.373492,0.978590,0.575072,0.067478,0.410743,-1.011348,-0.744368,-0.146581,-0.031226,0.704416,0.068983,0.793200,0.367688,-0.129372,0.094615,0.187685,0.044056,0.135867,0.277844,0.214678,0.737359,-0.078622,0.562118,0.609481,-0.024383,-0.623984,-0.085154,-0.326692,-0.083596,0.429285,-0.911719,0.328269,-1.199405,-0.207873,-0.731515,0.148258,0.154218,-0.385080,-0.702400,-0.382550,0.001912,0.177731,-0.068601,-0.078645,0.081663,0.120815,0.696493,0.646075,-0.956716,0.128355,-0.591577,0.152260,0.361679,-0.112775,-0.847528,0.289614,0.637935,0.353018,0.096876,-0.472906,0.100317,-0.721040,0.602904,-0.107232,-0.136303,-0.536997,-0.473341,-0.237882,-0.008957,0.108190,-0.303846,0.501314,-0.251927,0.574191,-1.024613,0.095445,0.333216,0.046657,0.140104,0.791971,0.145702,-0.520503,-0.003435,0.788295,0.642697,0.332036,-0.074740,0.572917,-0.313366,0.078192,-0.536614,-0.075136,0.299657,0.483142,-0.515951,-0.309006,0.763270,-0.141034,-0.339404,-0.562603,-0.033069,1.502360,-0.153900,0.045703,0.144749,0.560321,1.059293,-0.292318,-0.553406,0.225178,0.715269,0.203261,0.142342,-0.584555,0.150588,0.371456,1.055427,-0.263442,0.529425,0.273007,0.011039,0.812753,0.299014,0.761353,0.699617,0.006281,-0.931962,0.488017,-1.116076,-0.238208,-1.190932,-0.472838,-0.428405,0.059991,-0.872199,0.391169,0.322221,-0.407200,0.196543,-0.479293,-0.029164,0.087507,0.238048,-0.460204,-0.744755,0.974798,-0.631123,-0.167119,-0.395880,-0.264413,0.260780,0.240005,0.592104,-0.120820,-0.035010,0.562021,0.228298,0.140873,0.058732,0.187748,0.220121,0.155850,-0.158769,-0.148661,-0.055007,0.158500,0.841359,0.068283,1.064916,-0.768012,-0.679998,0.021523,-0.206394,-0.013049,0.429136,0.346906,0.576536,-0.467715,0.155659,-0.098416,-0.506484,-0.011195,-0.385670,0.496167,0.388301,-0.039849,-0.514459,0.654680,0.256391,-1.268617,0.053297,0.447486,-0.174036,0.273674,0.213742,-0.606945,0.703112,-0.686976,0.599563,-0.154313,0.207689,0.841913,-0.917039,-0.112469,-0.330463,-0.365021,-0.203923,-0.320884,0.284482,-0.176995,-0.167688,1.095553,-0.360475,-0.358139,-0.106593,-0.459167,0.634672,-0.667892,1.108571,-0.682393,-0.444076,-0.475186,0.224877,0.530815,-0.112268,0.274150,-1.693048,0.678029,-0.223035,-0.692376,0.148088,-0.754378,0.210003,-0.579315,0.849919,0.324450,-0.349410,0.194639,0.018834,-0.486873,0.657028,-0.244349,-0.421480,-0.814867,0.524466,-1.099337,-0.001761,0.469581,0.074102,-0.266657,0.667594,-0.239525,-0.203617,-0.268771,-0.082998,0.420970,0.439150,0.012463,-0.256708,0.279423,0.446702,0.443377,-0.337809,0.415595,-0.549234,-0.776784,0.097282,-0.151027,-0.775709,0.461261,-0.609128,0.499111,-0.557694,-1.064643,0.177726,0.099882,1.449515,0.519483,0.170179,-0.403769,0.044170,-0.718494,0.481606,-0.248713,0.337076,0.629942,0.590885,0.098168,0.384591,-0.581228,0.984732,0.759322,0.071287,-0.921826,0.587884,0.060418,0.137902,0.279875,0.131414,-0.258985,-0.315988,0.273026,0.060566,-0.987756,0.430808,-0.801815,0.114562,-0.375000,0.213466,0.821800,-0.303835,0.120880,-0.892515,-0.637694,-0.918294,0.486468,0.147380,0.222476,-0.830980,-0.246401,-0.036887,-0.615966,-0.127546,0.034476,1.151136,-0.035743,0.598779,0.276228,0.870376,-0.417002,-0.527257,0.868854,-0.028988,0.385955,0.098670,0.180765,-0.060919,-0.815921,-0.217324,0.009382,0.218210,0.634174,-0.205748,-0.496620,-0.387843,0.436254,-0.229339,0.015816,-0.375328,0.229767,-0.007152,-0.190740,0.080243,0.555000,0.216679,-0.653696,-0.259727,-0.406364,0.664423,0.464217,0.353049,-0.629582,0.783287,0.055626,-0.586055,0.942689,0.359041,-0.322569,0.068444,-0.631674,0.527327,0.556770,-0.586719,0.271250,0.241818,0.206409,-0.696041,0.176128,0.338721,0.739251,0.138270,0.591298,-0.321380,-0.675027,-0.298260,-0.085480,-0.016659,0.508714,-0.512923,0.392924,0.242735,-0.196837,-0.241903,-0.271353,-0.092138,-0.926142,-0.297820,-0.083304,-0.899887,-0.248945,-0.797565,0.415838,0.089135,-0.606224,-0.290624,-0.247449,-0.285075,-0.477695,-0.153346,-0.800844,1.004292,-0.275463,0.110283,0.905560,-0.998627,0.441501,-0.296129,0.283781,0.304419,0.680465,-0.258514,0.074381,0.322470,-0.241874,-0.268481,-1.041511,-0.915638,-0.140395,-0.673721,0.733601,0.028461,-0.385217,-0.533580,0.070200,0.570977,0.510646,-0.414307,-0.383024,0.231872,-0.676073,0.157447,-0.753101,-0.356086,-0.257907,-0.621075,-0.147218,0.258800,-0.196479,0.067776,0.782880,1.272586,1.038370,-0.018897,-0.434225,-0.255551,0.295010,0.906754,-0.305554,0.496739,0.372990,0.583129,0.464556,0.278956,-0.638422,-0.399103,-1.190944,0.177316,-0.063722,0.901591,-0.555663,0.935374,0.106975,0.378572,-0.015572,1.000790,0.168482,0.100942,-0.143393,1.363748,0.574098,0.468373,0.184092,-0.983135,-0.644580,0.191084,-0.629603,0.276709,-0.409723,-0.825014,-0.183332,-0.789838,0.365868,0.146675,-0.122500,-0.035655,-0.155428,0.534039,0.280008,-0.321627,-0.553270,-0.115827,0.328133,0.578100,0.778752,-0.830997,-0.187147,0.625352,0.036253,0.358726,-0.249523,-0.383302,-0.864481,-0.341510,-0.062088,-0.182297,-0.788986,-0.374834,0.312812,0.094353,0.166011,0.318846,-0.661599,0.217567,-0.522968,-0.158190,-0.646586,-0.073462,-0.735364,0.250730,0.696508,0.251705,-0.007035,0.743098,0.494255,0.236466,-0.508996,-0.151044,0.749125,-0.212514,-0.676577,-0.088961,-0.059813,0.128597,0.136733,-1.569092,-0.083697,-0.187529,-0.588519,0.696371,-0.117376,0.305017,-0.779932,-0.010803,0.556394,-0.213495,-0.582863,0.525907,0.111999,0.070145,0.305360,0.281454,-0.069032,0.285038,-0.048992,0.088622,-0.392998,-0.295593,1.145574,0.607188,-0.007839,-0.811879,-0.232766,-0.445539,0.149356,0.401388,0.303419,-0.512802,0.155319,0.792479,0.387668,0.138725,0.700197,0.089203,0.696826,0.678263,0.411885,0.097063,0.083568,0.496354,-0.139353,-0.121453,0.117450,0.706453,0.376021,0.228934,0.054558,-0.835529,0.621189,-0.310854,0.770027,0.365303,-0.185804,-0.280709,0.339470,0.323646,0.046868,0.691636,0.085647,0.205834,0.058153,0.869207,0.938923,0.621872,0.749593,0.179090,0.137426,-0.702062,0.070571,-0.482763,0.259731,-0.022237,-0.647359,-0.634758,0.029039,0.144534,-0.397265,-0.942895,0.085871,0.021681,0.713247,0.007502,0.755648,0.391294,-0.251792,-0.286803,0.142711,0.594439,-0.101546,-0.013503,-0.036550,-0.854589,-0.262290,-0.264250,-0.361498,-0.346058,-0.186733,-0.195520,-0.384847,-1.204893,-0.092990,-0.536482,-0.521022,0.176278,0.310287,0.601807,0.992052,-0.285444,-0.655075,0.235618,-0.143295,-0.338317,-0.439006,-0.888392,-0.122141,-0.201729,0.360229,0.002219,-0.262275,-0.672694,0.001480,0.711409,0.189823,0.854526,-1.161366,0.014966,-0.007306,-0.194377,-1.123537,0.436405,0.367743,0.141405,-0.079431,0.206516,0.409210,-0.075235,-0.728395,-0.056607,0.532637,0.308470,0.539369,0.175601,-0.057144,0.086668,-0.216030,0.137535,-0.323486,-1.257906,0.021064,0.702726,0.298901,0.695878,-0.270182,-0.027293,-0.438571,0.579195,0.780556,0.320725,-0.827029,-0.211733,-0.674812,0.848619,-0.598001,-0.081206,-0.267324,-0.273629,0.485655,0.809734,-0.935665,0.482856,-0.549463,0.065226,0.497135,0.671564,0.922744,0.005036,0.374633,0.370749,0.369271,-0.170821,0.894682,-0.642117,0.233133,0.004201,-0.144365,0.076870,-0.277170,0.912357,-0.105561,0.094861,-0.619792,1.225871,-0.261514,-0.483208,0.264227,0.475892,1.245863,0.905718,-0.760852,0.363350,-0.102018,0.214194,0.257438,0.328878,-0.714298,0.078175,-0.373969,0.585931,-0.614626,-0.841587,-0.833181,-0.409843,-0.633918,0.245575,-0.095569,0.147531,-0.038328,0.606174,-0.548652,0.102270,0.816936,-0.024072,0.636196,0.181633,0.274266,0.635287,-0.461729,-0.322441,-0.090849,0.248305,-0.154648,1.478740,-0.197907,-0.048282,-0.127258,0.504686,0.039937,0.113858,0.134497,0.118471,0.681871,0.357212,-1.039480,0.104545,-0.341142,-0.010434,-0.263498,0.753733,-0.761680,-1.340254,-0.478126,-0.238376,-1.194642,-1.448049,0.861146,-0.441117,-0.513188,0.050096,-0.754991,0.058533,-0.600070,-0.283820,0.190500,0.355494,-0.166772,-0.255893,0.217198,-0.220174,0.845661,-0.119727,0.399216,0.247153,0.025379,0.606517,0.646721,0.465203,-0.088520,0.187017,0.080401,-0.897997,0.852734,0.228329,0.968311,0.778527,0.621531,-0.432582,-0.570503,-0.122145,0.511180,-0.092070,0.208505,-0.225628,0.963203,-0.319865,0.151985,-0.523606,0.129606,-0.122460,-0.099052,0.908328,-0.275553,-1.178997,0.002526,0.302292,-0.508677,-0.114419,-0.035029,-0.640680,0.061198,0.300514,0.151665,1.045974,-0.022347,0.652750,-1.102854,-0.297845,-0.631621,0.092565,0.049045,0.039582,-1.047327,-0.019726,-0.759398,-0.476002,-0.304813,-0.323363,-0.481114,-0.117530,0.215393,0.412756,0.106342,-0.049699,-0.322615,0.290783,-0.359994,0.007874,-0.762548,0.988031,-0.584022,-0.008461,-0.284902,0.210985,0.122327,0.447486,0.148631,-0.764109,-0.999532,-0.132557,0.491747,-0.105712,0.088239,-1.088096,-0.516161,-0.360559,0.439889,0.804951,1.199556,0.175806,-0.347948,-0.230333,-0.103491,-0.946438,-1.169161,0.370752,0.135419,-0.795900,0.538049,-0.038650,-0.800756,0.512774,0.259062,-0.144881,-0.124146,0.632150,0.227553,-0.916721,0.883987,0.306795,0.453253,0.643132,0.543813,0.288679,-0.522454,-0.187496,0.263027,-0.334082,-0.022196,0.073521,0.952869,-0.167037,-0.031299,0.547154,-0.004269,0.138955,-0.299904,-0.287492,0.198261,-0.126031,-0.500322,0.706281,0.036228,0.011595,0.382604,0.648597,-0.222168,-0.563549,0.267618,-1.832415,-0.001301,0.798396,1.367204,0.289917,0.265745,-0.634124,0.167945,-0.267628,-0.379916,-0.112363,-0.630086,-0.422190,0.007411,0.089140,1.168068,0.214213,0.050368,-0.152039,-0.143957,-0.216918,-0.502958,-0.459908,0.959793,0.462203,1.136240,-0.358393,0.134593,1.119600,-0.134028,-0.140325,0.883390,-0.382786,0.085775,0.530965,0.565150,1.246594,0.381281,0.180900,0.135161,0.397620,0.200137,-0.118886,0.759483,-0.126860,0.759272,0.819004,-0.414653,-0.308030,-0.137061,-0.573294,0.295840,0.178241,0.435003,0.402818,0.256619,1.113608,0.140770,0.528361,-0.064003,-0.361639,-0.745544,0.140809,1.346175,-0.414353,0.172301,0.289466,-0.020727,0.126952,0.646536,-0.108225,0.465012,-0.211913,0.316782,-0.246041,0.459291,-0.492521,0.001144,0.393366,0.008180,-0.147383,-0.046152,0.123417,-0.520949,0.664556,-0.647075,-0.077681,0.002513,0.285233,-0.329691,0.814565,0.207810,-0.474066,-0.268602,-0.327878,-0.001247,0.589974,-1.085543,0.590491,-0.745199,-0.629353,-0.097557,-0.305777,-0.167027,-0.338243,-0.430405,0.290244,0.168722,0.099098,1.287028,-0.685499,1.134887,0.043919,-0.299118,-0.525291,0.197147,0.293082,-0.046409,0.012240,-0.521368,-0.076390,0.204941,0.413375,0.062268,-0.021329,-0.810030,0.526577,-0.542927,0.295479,0.948654,-0.615265,0.102187,-0.011094,-0.272399,0.219930,-0.099410,-0.563100,0.321464,-0.398382,0.515408,-0.260900,0.457638,0.867993,-0.140066,-0.504171,-0.445038,-0.400992,-0.614653,0.196461,-0.097091,-0.424347,-0.304689,0.183761,-0.328198,-0.149532,0.481190,-0.148700,-0.343198,0.402093,-0.511527,0.164780,-0.064114,0.025315,-0.928859,0.104993,0.557166,0.543032,0.145302,-0.376471,0.313006,-0.594817,0.102562,0.884250,-0.206141,-0.374050,0.084500,0.130264,-0.577399,-0.360961,-0.025631,0.503243,0.102460,-0.291054,0.003779,0.285828,0.068773,0.017056,0.714649,-0.245975,0.764337,0.192782,-0.348166,0.465356,0.776944,0.631256,-0.243155,-0.146535,-0.357652,-0.095678,-0.420181,0.439921,-0.052944,-0.499644,-0.045804,0.276237,0.488199,-0.054065,1.249903,0.291839,-0.853159,0.388976,-0.592947,-0.276449,0.079312,-0.966143,-0.042288,0.011230,-0.494332,0.155097,-0.018974,-0.403030,-0.283014,0.035641,-0.349305,1.036241,0.179541,-0.061622,0.369191,0.533120,-0.300179,0.016697,0.159296,-0.367615,-0.961933,-0.711985,-1.408659,-0.213283,-0.176274,-0.064512,-0.146167,-0.482605,-0.206999,-0.466278,0.366020,0.579896,-0.851899,-0.191583,0.864170,-0.176549,1.193271,-1.091741,0.145396,-0.228818,-0.434336,-0.112765,0.565142,0.364430,0.336635,-0.031394,-0.382057,-0.528068,-0.047130,-0.565674,-0.314101,0.059580,0.509626,-0.180607,-0.027561,-0.284429,-0.029182,-0.935864,-0.508962,-0.317308,0.428105,-0.386933,-0.484342,0.808753,-0.380909,0.999847,0.359769,0.957993,0.494743,-0.366915,-0.537417,0.065356,-0.656922,0.064335,0.683669,-1.003284,-0.033745,-0.022283,-0.167309,0.173046,-0.466977,0.142302,0.153273,-0.962516,0.018282,-0.678830,0.229626,-0.134284,0.768202,-0.690822,-0.469085,-0.585209,-0.004279,0.337476,-0.107159,-1.328432,0.893441,-0.467952,0.534319,0.364277,-0.841170,-0.149429,0.799076,0.205555,-0.276255,-0.443257,-0.790159,-0.441894,0.352872,-0.354334,-0.024507,-0.178404,0.716121,-0.787842,0.595370,-0.227558,-0.201809,-0.481275,0.075039,-0.777726,-0.489650,0.077543,0.119624,-0.406207,0.058870,-0.352030,-0.394527,0.364638,0.366848,0.474633,0.283967,-0.228854,-0.049404,1.119549,0.053080,0.255051,-0.951465,-0.060676,-0.720055,0.547659,-0.134522,-0.403784,0.180566,0.511838,-0.278495,0.883935,-0.130864,1.173424,-0.467169,-1.441783,0.005805,0.635186,0.222752,-0.198804,-0.447494,-0.079627,0.262772,0.167520,0.493471,0.447430,0.507519,-0.336707,-1.127967,0.451566,-0.081644,-0.612738,-0.125449,0.396852,-0.273574,-0.513281,0.255928,0.240166,0.386705,-0.250209,-0.180199,0.114542,-0.240494,-0.066740,0.026685,-0.160425,0.028682,0.217878,0.112533,-0.049930,0.678223,-0.566797,0.271953,-0.370844,0.008836,-0.363125,0.281946,0.359524,1.017147,0.339440,0.273961,-0.487943,0.087234,0.984899,0.341173,0.153237,0.022397,0.033640,0.642565,0.160999,-0.626375,0.506337,0.215206,-0.043914,0.637529,-0.018817,0.527628,-0.191662,-0.425719,-0.844877,-0.150098,0.952230,-0.549517,-0.252503,0.141124,-0.112600,-0.714645,0.088282,0.569482,1.488283,0.609680,0.096864,-0.220867,0.948114,0.453096,-0.581148,-0.187321,0.525593,-0.167993,0.303318,1.068931,0.018004,-0.366544,-0.628411,0.583386,-0.397808,-0.695049,-0.373436,0.440279,0.214480,-1.036868,0.032895,-0.296420,0.164186,-0.554693,0.406611,-0.417724,-1.178849,-0.264439,0.033889,0.977159,-0.014824,0.311240,0.228518,-0.161058,0.360939,-0.205338,0.229771,0.378774,-0.562692,-0.719402,-0.096054,0.725179,-0.682337,-0.137807,-0.227811,-0.625092,0.162462,0.008741,0.177941,0.649918,-0.207920,-0.688909,-0.396852,0.262256,0.376001,-0.703097,0.375776,-0.187945,-0.227750,0.276243,0.337341,0.352549,-0.067719,0.224382,-0.260991,-0.026890,0.422809,0.305964,-0.341721,-0.119223,0.875334,-1.126905,-0.486296,-0.455277,-0.047058,-0.442534,0.056540,-0.080034,-0.162946,0.445145,-0.378284,0.404857,-0.710294,-0.086188,-0.041883,0.174908,-0.757591,-0.075459,0.627623,0.124349,-0.189752,-0.174612,-0.049646,-0.573793,-0.230829,-0.389856,0.128613,0.717093,-0.284276,-0.408097,0.179911,0.492557,0.082836,0.599306,-0.857287,-0.097695,-0.430817,0.424582,1.289478,-0.471345,0.151935,0.595408,-0.162263,-0.300001,-0.226994,0.683430,-0.010641,-0.100535,0.396317,1.278760,-0.073785,0.339271,-0.575256,0.632520,0.114594,-0.792807,0.240055,-0.072266,0.090143,-0.315439,0.667899,0.524690,-0.492124,-0.004225,-0.484394,-0.682310,0.050280,0.078913,-0.423219,0.999581,-0.103675,-0.235693,-0.426307,-0.623598,-0.431043,0.006168,0.402101,0.833038,0.807316,-0.544250,-0.292404,-0.213412,-0.277504,-0.068234,-0.808293,-0.312055,-0.802125,-1.443070,0.569573,0.346359,0.304732,-0.498001,-0.812079,0.059556,0.913721,0.596284,0.177028,0.475673,0.280645,0.650960,-0.687910,0.567176,0.626505,-0.236039,0.340476,-0.073865,-0.660878,0.461496,1.117741,-0.623291,0.033671,-0.380436,-0.223401,-0.406019,0.161896,-0.175855,-0.178240,-0.698526,0.177357,-0.014247,0.629777,0.498756,0.406565,0.189270,0.206568,-0.384374,0.543655,-0.503518,0.297119,0.207537,0.007307,-0.350628,-0.325399,0.510846,-0.839186,-0.082226,0.662601,-0.433620,-0.577902,0.933698,-1.021372,-0.168688,0.274159,-0.456043,-0.126773,0.622322,0.091983,0.014576,0.376000,-0.686517,-0.253640,-0.031163,-0.670566,-0.900427,-0.379755,-0.125468,-0.911818,-0.989690,-0.132214,0.875104,-0.840785,0.275322,0.165522,-0.719698,-0.717285,-0.007532,0.026124,-0.350048,0.389749,-0.464042,0.532926,-0.014499,-0.727089,0.099749,-0.249487,-0.336985,0.883943,0.078850,-0.137986,0.254940,-0.976805,-0.235869,-0.700938,0.460245,-0.849264,-0.205276,-0.110285,-0.329064,-0.012508,0.598626,-0.649711,1.100085,-1.104577,0.417725,0.832254,-0.753907,-0.564261,-0.399711,0.398894,0.001938,0.285320,-0.349725,0.328006,-0.297326,-0.515870,0.396838,0.288321,-1.169043,-0.228920,-0.203517,-0.026863,-0.366909,-0.024474,0.491254,-0.200472,-0.124026,0.243380,0.290490,0.548323,0.948114,0.506201,0.059792,0.082535,0.171066,0.039488,-1.093730,-0.070653,-0.412939,0.297083,1.035108,0.931126,-0.258259,0.889101,0.936034,0.258648,0.221867,0.359669,0.453760,-0.183332,-0.131759,-0.409879,0.234508,0.253223,-0.637281,0.189025,-0.074493,-0.203941,-0.046790,-0.766464,-0.620244,0.538943,0.942909,-0.209964,-0.169824,-0.498051,-0.207445,1.047819,-0.301694,-0.485417,-0.253753,0.061859,-0.984046,0.625458,-0.467086,-0.535720,0.488208,-0.227901,-1.041262,0.346188,0.290637,-0.324735,0.602859,-0.203302,-0.082060,0.943424,-0.086112,0.048648,0.428230,0.001752,-0.425367,-0.607677,-0.049889,0.462729,0.383968,-0.044890,0.909593,-0.208728,0.195452,-0.630234,-0.414141,-0.129550,-0.486162,-0.094571,0.669343,-0.376192,0.450991,-0.032170,0.061528,-0.176992,-0.225873,-0.893941,0.075390,-0.161616,0.407425,-0.244625,-1.577218,0.242353,0.175105,-0.483575,-0.046199,0.717028,-0.979770,-0.410982,0.502412,-0.621149,-0.874071,0.470578,-0.124410,-0.133397,0.243559,-0.200949,-0.006892,-1.109202,-0.544776,-0.177774,-0.195157,0.267245,-0.349923,-0.575075,-0.553043,-0.605584,1.031424,0.228850,0.234789,-0.432096,-0.651643,0.398724,-0.046149,-0.325688,0.017475,0.014081,-0.385727,-0.027779,0.063195,0.000752,0.318912,0.766984,-0.056949,0.316465,-0.080510,0.076980,1.142488,0.496670,0.395710,-0.186719,0.799724,-0.273902,0.308448,-0.149311,0.270825,0.142967,-0.832326,-0.688938,-0.049455,-0.179627,-0.026143,0.116151,-0.075252,-0.483094,-0.186553,-0.336765,0.472913,0.283814,0.349743,0.384489,0.243060,-0.637464,0.804423,0.185221,0.303628,0.286239,0.604648,0.089726,-0.370118,0.200880,-0.483676,0.762710,0.014824,0.849830,0.345647,0.569636,0.003475,-0.273953,-0.410511,-0.475750,0.057564,-0.482001,-0.767875,0.091006,-0.483583,0.679048,-0.159884,0.586034,-0.498885,-0.357884,0.333247,0.081076,0.448304,-0.096563,0.623894,0.141961,0.580295,-0.594741,-0.600165,0.055753,0.921025,0.767297,-0.681563,-0.513684,-0.739597,0.061299,-0.495767,-0.392840,-0.435432,-0.687057,-0.761396,-0.380781,-0.230151,0.221602,0.799394,-0.148993,0.006375,0.435580,0.394588,0.474600,-0.971743,0.408622,0.025269,0.334738,-0.572875,0.324692,-0.909221,-0.662093,-0.251668,-0.118712,-0.663887,0.115909,0.288371,-0.718925,0.522232,0.188743,0.111145,-0.050529,-1.185616,-0.008884,-0.606597,-0.239135,0.002653,0.217939,0.791754,0.324720,-0.614638,0.900544,0.470330,0.339890,0.669275,0.147625,-0.829965,0.714793,0.131699,-0.171881,0.396641,-0.785597,0.271691,-0.229351,0.348526,-0.472877,-0.352103,0.694606,-0.012422,-0.570849,0.647890,-0.038556,-0.040313,0.243614,0.355013,0.405025,-0.005777,0.150125,-0.169501,-0.431275,0.604903,0.182516,-0.023085,-0.248134,-0.576079,-0.090144,-0.999058,-0.463192,-0.288383,-0.184631,0.790399,-0.125032,-0.304087,0.394109,-0.242698,0.539615,0.126108,-0.530282,0.294511,-0.286326,0.261914,0.317708,-0.067832,0.236231,-0.257237,-0.167883,-0.517175,0.395042,0.689056,-0.276094,0.002307,0.335165,-0.395754,0.260882,-0.874230,0.460876,0.425002,-0.404854,1.074339,0.282162,-0.434631,-0.357288,-0.809666,0.403567,-0.163963,-0.080168,-0.500172,0.422721,-0.536420,0.022887,-0.293669,-1.061120,-0.512001,-0.493580,-0.325032,0.179775,0.791409,0.537645,0.280098,-0.597812,-0.640295,-0.013627,0.168185,-0.104219,-0.017663,0.612733,-0.448998,0.977293,0.280379,0.976526,0.218009,-0.288489,-0.471666,-0.340716,-0.648262,0.649650,0.136822,0.647430,-0.525811,-0.906060,0.453247,0.086635,-0.585624,0.877295,0.546015,-0.474043,0.810281,0.674964,0.497527,0.107313,0.076354,-0.423069,-0.074390,0.579207,-0.435876,-0.698206,0.152375,0.300392,-0.465374,-0.355598,0.123169,0.006051,0.265462,0.400434,0.887372,0.004759,1.267237,-0.464622,0.487287,-1.284481,-0.219819,0.769522,-0.343819,0.280243,0.096028,-0.512603,0.616081,0.192075,0.359277,0.603046,0.608694,0.482608,-0.074576,0.477940,0.648379,0.733532,0.351176,0.464048,0.305124,-0.353606,0.414602,0.591715,0.167312,-0.005412,-0.589420,-0.415577,0.240862,0.789097,-0.482322,0.624752,-0.567360,0.301995,0.295263,-0.096329,0.041596,0.300975,-0.306124,-0.737909,-0.040724,-0.487847,1.028984,0.432502,0.609779,0.054587,-0.664786,-0.997023,0.713564,-0.072806,0.265284,0.908993,-0.652586,-0.308227,0.722288,-0.398141,-0.490823,-0.575558,-0.045536,0.220128,0.074424,-0.247303,-0.151416,0.009976,0.472353,-0.837717,0.192654,-0.831479,-0.131949,-0.026130,0.078430,0.995341,-0.382321,-0.648294,-0.438954,1.348349,-0.792258,-0.827161,-0.092604,0.298411,0.013275,1.022787,0.441295,-0.540910,0.674127,-0.167808,-0.072676,0.237076,-0.828765,-0.392872,-0.611483,0.413533,0.973827,-0.782088,-0.867401,0.816673,0.584585,-0.418457,-1.068790,0.458737,-0.988658,-0.030675,0.369920,-0.326902,-0.034561,-0.217821,0.017677,-0.262695,-0.175134,-0.617653,-0.110059,-0.421776,-0.240867,-0.101209,0.094405,-0.391502,-0.479051,-0.263687,0.129738,-0.223989,-0.576332,-0.098640,0.804154,-0.085048,-0.389947,0.700231,-0.572105,-0.187278,0.073497,0.620913,0.088183,-0.730555,0.151751,0.217097,-0.248670,0.146532,0.417700,0.207372,-0.237883,0.918028,-0.124698,0.276446,-0.549976,0.174669,0.320888,0.842701,-0.468510,-0.151533,0.216272,0.666972,-0.283745,0.543469,-0.611621,0.586429,0.139780,-0.165133,0.517560,0.514412,0.275726,-0.499057,-0.110624,0.477530,0.328090,-0.272102,-0.141070,0.146538,-0.042508,0.302412,-0.494939,0.343546,-0.888376,-0.485268,-0.258457,0.973390,-1.058173,-0.176337,1.051716,-0.117568,-0.241707,-0.410393,-0.098864,-0.027564,-0.078488,-0.150948,-0.088758,-0.267008,-0.095535,0.102268,-0.445789,-0.031723,0.480750,-0.106571,0.167030,-0.606198,-0.358097,-0.084593,0.524256,-0.956021,-0.791427,0.816020,-0.207047,-0.897497,-0.029318,-0.360263,0.627462,-0.083473,0.761989,0.454513,-0.594610,-0.607660,-0.521270,0.236036,0.120678,0.413284,-0.005211,-0.033410,1.289398,-0.152468,0.663574,0.640485,0.385348,-0.422311,0.714746,0.616775,-0.461707,0.294944,-0.342864,0.461046,-0.745549,-0.372150,0.044405,-0.053793,-0.285882,0.393589,-0.551210,-0.949078,0.171772,0.409116,0.013585,0.626707,-0.549695,0.016108,-0.427931,-1.141071,-0.947354,0.101674,0.148993,-0.381989,-0.226236,0.031457,-0.427274,-0.203399,0.677319,-0.627492,0.136610,-0.201544,0.233785,1.360552,-0.083590,0.733325,-0.125343,-0.240204,-0.561616,0.118720,-0.268293,0.544218,-0.581636,0.825213,0.623437,-0.219698,-0.840513,0.089743,0.273353,-0.125131,-0.592880,-0.176032,-0.128968,-0.313914,0.613757,-1.110548,1.207108,0.931397,-0.059531,-0.295590,0.499050,-0.020199,0.242725,-0.979768,-0.377359,-0.014096,-0.570157,0.816186,-0.393973,-0.457072,-0.274129,0.036475,-0.643845,-0.317051,0.398827,-0.395398,0.424190,0.563232,0.576414,0.032868,-0.047342,0.034544,-0.023681,0.087197,0.061038,-0.015629,0.437225,0.488979,0.007184,-0.106223,-0.591366,0.549626,-0.190049,-0.057791,0.482426,-0.258898,0.359432,0.568507,-0.012111,-0.108192,-0.598708,-0.167542,-0.557050,0.284084,0.478385,-0.066279,0.186238,0.122887,0.228542,-0.096455,-0.206055,1.248286,-0.131678,-0.449420,-0.858443,-0.260953,-0.196096,0.508862,-0.372325,-0.731400,0.527219,0.744788,0.316910,-0.460546,-0.554939,0.341866,0.372258,-0.110949,-0.195985,0.084753,-0.329837,0.737496,-0.599743,0.041193,0.013059,0.124606,-0.233587,0.515181,0.037166,-0.190237,-0.128094,0.139319,-0.469299,0.569878,0.194749,0.773350,-0.143841,-0.135735,-0.377380,-0.040339,0.397206,-0.000689,-0.331216,-0.260090,-0.181044,-0.635728,-0.003521,0.701020,-0.213032,0.230028,0.584907,-1.121223,-0.452618,0.328072,0.506760,0.785708,-0.583518,0.524878,-0.748104,0.622448,0.584057,0.627494,-0.003784,-0.023674,-0.414166,0.549688,0.327847,-0.335552,-0.250110,0.898055,0.223609,-0.588550,0.144781,0.093258,0.266322,0.116598,-0.248429,-0.969033,-0.665110,0.184700,-0.277247,-0.187264,-0.234487,-0.356383,-0.089241,0.510428,0.322329,0.652664,-0.097861,0.216635,0.487897,-0.027230,0.423137,0.817095,-0.118395,0.154785,-0.419858,0.174043,0.040232,-1.337097,0.968220,0.996202,-0.705651,-0.716945,-0.158027,-0.036617,0.814972,0.653787,0.478338,0.552179,0.159648,0.207524,0.156426,0.652729,0.416994,-0.024150,-0.264414,0.304496,0.280376,0.163593,-1.029980,-0.188742,-1.231516,0.116426,0.994103,0.872690,-0.070415,0.638626,-0.356171,0.411191,-0.029159,0.341791,0.423719,-0.379789,0.092537,-0.474904,0.047508,-0.471976,0.135615,-0.384838,0.427644,-0.028120,-0.070513,0.265797,-0.390724,0.154609,0.776656,0.228185,-0.124339,0.466091,0.033323,0.483656,0.246199,-0.560287,-0.008009,-0.189281,-0.741176,-0.047819,0.148398,-0.159001,-0.512288,1.032535,0.050206,0.105956,0.073310,-0.723267,-0.377396,-0.849669,0.265244,0.222281,0.056373,0.338916,-0.590687,-0.808388,-0.658969,0.284154,0.440838,0.777461,-0.105661,-0.837911,-0.538003,-0.030457,0.131182,0.415324,0.277437,0.291368,-0.470244,0.153941,-0.577214,0.085766,0.209318,-0.229304,0.257901,-0.371740,-0.088929,-0.615405,0.630519,0.099080,-0.088705,-0.374511,-0.008266,0.075858,-0.309236,-0.492213,-0.047885,-0.574863,0.084949,-0.456255,0.305148,-0.185678,1.281737,-0.330732,-0.169806,-0.615534,0.078580,0.131188,-0.813240,0.143948,0.211053,-0.125072,-0.255626,-0.421717,0.700523,0.396635,-0.028548,0.505224,0.727707,-0.240214,0.374456,0.737559,-0.872540,0.769798,-0.492775,-0.514392,-0.797492,0.560430,-0.028136,-0.603525,1.041663,0.469055,0.027905,0.055202,0.211176,-0.704454,0.657756,0.123678,0.962140,0.168243,0.600129,0.761918,0.228815,-0.030831,-1.083876,-0.930088,0.254191,-0.008436,0.179127,0.469408,-0.232326,0.869122,0.313400,0.029957,1.084550,-0.642338,0.680198,0.924768,-0.634171,0.057341,-0.812870,-0.586779,0.033333,0.212279,0.443698,-0.672888,-0.294863,-0.353908,0.740901,0.364515,0.637706,-0.338249,-0.283377,0.585718,-0.253171,0.056041,0.096134,-0.308152,0.263010,0.957494,-0.439308,-0.693005,0.361931,-0.352887,0.775061,-0.792876,0.555685,-1.214262,-0.616536,-0.313517,-0.885534,0.021112,-0.565053,0.186511,0.526991,1.131698,-0.249667,0.665558,-1.038816,-0.498081,0.008726,0.233852,-0.084028,-1.144933,-0.651667,-0.271154,0.033703,0.997181,0.516235,0.042975,0.199370,0.092781,0.040539,-0.644593,0.341069,-0.064629,-0.097465,-0.051401,0.162698,-0.647515,0.040724,-0.044834,-0.382806,0.814793,-0.487512,1.130437,0.714781,-0.155045,-0.164435,-0.559206,0.637546,-0.804220,-0.242344,-0.557721,-0.085866,0.325438,-0.736716,0.163115,-0.838428,-0.285606,0.659696,-0.154201,-0.523176,0.739791,-0.620262,-0.353551,0.423179,-0.087476,-0.808877,-1.142384,0.247606,0.698904,-0.895841,-0.009170,-0.066647,-0.301899,-0.430602,-0.043046,-0.430304,0.392233,-0.233474,-0.797408,-0.004077,-0.086006,0.141775,-0.719303,-0.946128,1.459709,0.380712,-0.664144,-0.405482,0.677344,1.070263,-0.928203,-0.082161,0.665982,-0.475380,0.948448,-0.019708,0.750348,0.097567,-0.127419,-0.515084,-0.581153,0.193529,0.200376,0.584638,-0.075691,-0.561334,0.901021,-0.544260,0.130341,0.932968,-1.181596,-0.729828,-0.159374,-0.213085,0.084931,-0.565870,0.947605,-0.504732,0.520503,0.041601,0.194507,0.271530,-0.399046,0.027749,0.349400,-0.299867,0.571321,0.349533,0.036946,-1.356109,0.838019,-0.159628,0.351620,-0.579849,0.548318,-0.025722,-0.828348,0.602441,-0.703962,-0.756524,0.554756,0.035050,-0.292190,-0.166729,-0.514368,-0.016707,-0.049398,-0.351913,-0.308047,-0.561279,-0.398491,0.329804,-1.095067,0.866955,0.204795,-0.512567,-0.094535,0.054820,-0.469282,-0.658332,0.300585,-0.621847,-0.437261,-0.336287,0.815105,0.156279,-0.657388,-0.561174,0.394494,0.300942,-0.188602,1.099237,0.987868,-0.204852,-0.300788,0.054965,0.881714,-0.155827,0.484013,0.764843,0.215637,-0.475096,0.027206,0.132828,0.309956,-0.125798,-0.290564,-1.352049,-0.144568,0.155081,0.397547,-0.245848,-0.261872,-0.907612,-0.185591,-0.192696,0.191707,-0.205958,0.615314,-0.121738,-0.879291,0.584293,0.530995,0.406496,-0.029918,-0.379186,0.850964,-0.000857,-0.511806,-0.134069,-0.162391,0.365096,0.566894,-0.179460,0.482172,0.074707,0.009995,-0.270135,0.281152,-0.527798,0.882916,0.193171,-1.242867,0.428425,-0.937172,0.845092,0.782684,-0.956211,0.040767,-0.490968,-0.450007,-0.193528,0.365294,-0.384830,-1.176361,0.383463,-0.478772,-0.925686,-0.162011,-0.044264,0.165496,-0.413364,0.247994,0.412643,0.376901,0.382005,-0.271237,0.316628,-0.355161,-0.275353,0.446173,-0.705904,-0.354948,0.234231,-1.104751,1.081658,-0.285815,0.333651,-0.267500,-0.467749,-0.553961,-0.209632,-0.219577,0.029303,0.594566,0.110661,0.138170,-0.192083,-0.622474,-0.749257,0.618521,-0.474689,0.464984,-0.372731,-0.301403,-0.041815,-0.068645,0.748545,0.304547,0.521028,0.829224,-0.469812,-0.254987,1.001541,-0.776050,0.319948,0.632600,-0.931181,-0.242977,-0.027116,-0.014192,0.500121,-0.202486,-0.149447,-0.809541,-0.772201,-0.784888,0.003956,-0.425740,0.401894,0.979201,-0.965532,0.629365,0.458072,-0.266868,-0.371066,0.042617,0.437720,0.204498,-0.215972,-0.677683,-0.337695,0.092624,-0.149425,-0.026932,0.079641,0.039439,-0.732930,0.256260,0.017234,-0.281106,0.506343,0.429839,-1.041658,-0.196992,-0.153348,0.209328,0.274294,0.009776,-0.214923,-0.170039,0.238364,0.168845,0.112307,-0.265458,-0.195249,0.426153,0.475145,-0.301146,-0.433039,0.023458,-0.665918,-0.065943,-0.600117,0.063290,0.622084,0.126228,-0.266203,-0.273401,0.552366,-0.845314,-0.332825,-0.090876,0.094984,0.582938,-0.143133,0.145358,-0.374408,-0.237952,0.148689,0.710778,-0.593955,-0.646879,-0.243022,0.805844,1.045139,0.160731,0.049969,-0.010856,-0.576330,-0.109289,-0.912034,0.228652,-0.825330,-0.648918,-0.021762,0.019121,-0.599831,0.203340,0.073677,-0.119755,0.359347,0.459479,-0.906496,-0.516379,0.360837,0.009509,0.361436,0.371259,-0.176103,-0.270848,-0.954616,0.167197,-0.640702,0.156075,0.644116,0.033171,-0.970927,-0.356937,-0.097608,0.224122,0.155414,0.591316,1.161790,0.656625,-0.217779,-0.079057,0.625594,0.075505,0.256516,0.307258,0.321634,0.540361,0.156453,-0.120830,0.177647,-0.202666,0.978060,-0.352773,0.045709,0.186086,0.434778,-0.217482,0.144995,0.128490,0.381860,0.524056,0.122028,-0.109060,-0.550939,-0.194956,-0.809379,0.586519,0.109900,-0.335226,-0.241429,-0.001407,0.177505,0.230845,-0.001482,0.567405,-0.251993,-0.720191,0.107087,0.394354,-0.044316,-0.602129,-0.857400,-0.919229,-0.281783,0.037742,-0.039637,0.199960,-0.966317,-0.315503,0.516554,-1.113492,0.453120,1.003898,0.192255,-0.213548,0.599379,-0.376108,-0.409211,0.706514,0.740858,-0.523597,-0.356372,0.439621,0.159884,0.010090,-0.129092,-0.177945,0.254306,-0.265436,-0.184738,0.869031,0.457365,0.191299,-0.589502,-0.039276,-0.505814,-0.106937,0.509517,-0.797624,-0.360682,-0.632529,-0.766141,-0.484067,0.387709,-0.516294,-0.678962,0.168813,-0.235098,0.315589,0.826927,0.194191,0.276732,-0.645161,-0.231005,0.099345,0.460253,0.485723,0.324384,0.483177,-0.339476,-0.043513,0.006931,0.543928,-0.561090,0.149211,-0.025959,0.316324,0.368955,0.498323,0.598741,0.035784,0.119674,0.073794,-0.049153,0.230593,-0.439059,-0.854618,-1.424711,0.007866,-0.044131,-0.159981,0.123663,0.200316,-0.873056,0.014117,-0.059106,-0.378466,0.158166,-1.005596,0.321414,-0.081367,-0.015368,0.144254,-0.032877,1.132659,-0.346880,0.026414,-0.478349,0.491304,0.610791,-0.119847,-0.886581,0.610024,0.104872,0.285964,-0.005162,-0.394485,0.647937,1.361643,0.079039,0.692908,0.958332,0.145895,0.053911,0.690460,0.649926,0.964629,0.978732,0.494650,-0.196420,-0.981365,-0.789518,0.539670,0.300589,-0.452068,-0.000909,-0.463830,-0.602665,-0.676308,0.350157,0.233566,0.816431,-0.311873,-0.138507,-0.257479,0.331150,0.183367,-0.170384,-1.018605,-0.005640,-0.104997,0.024022,0.531454,-0.063456,-1.095892,-0.268501,-0.277674,-0.471410,0.399289,0.161059,-0.748347,0.098610,-0.060775,-0.209625,0.359145,0.354526,-0.585123,-0.679822,-0.768255,0.330402,-0.102316,0.474405,0.010928,-0.643812,-1.097355,0.029893,-0.069170,0.528237,1.000629,-0.442941,-0.447583,0.161593,0.158829,-0.277020,0.143705,0.307817,0.337325,-1.319042,-0.423326,0.534517,0.064184,0.303653,-0.248595,-0.613704,-0.412652,0.376450,0.587234,0.013533,-0.504442,-0.285082,0.397808,-0.189135,0.203236,0.721654,0.029873,-0.717192,0.345759,-0.395331,0.567240,-0.525517,0.429234,0.935326,-0.316020,-0.237033,1.064346,-0.073409,-0.287318,-0.415716,-0.949563,-0.093813,-1.085944,-0.035410,0.806300,0.205749,0.304068,0.049906,-0.565408,-0.416701,-0.136046,-0.104920,0.133697,-0.402287,1.001168,0.304212,-0.563610,0.012540,-0.233715,-0.091247,-0.155571,0.692892,0.356452,-0.651284,0.086866,0.091983,0.546026,-0.045319,0.418311,0.404405,-0.431521,0.283975,0.154927,0.083848,-0.650318,0.290612,-0.312129,0.719198,0.302823,0.143549,0.021945,0.095915,0.550438,0.099279,-0.436842,0.225424,0.043700,-0.749007,-0.130238,-0.090039,-0.721679,0.252189,-0.324231,0.097520,1.199731,-0.046692,0.611227,0.664849,-0.895425,1.009087,0.374931,-0.267351,0.659424,-0.698188,0.183264,-0.098374,-0.394620,0.152180,0.483547,0.685453,0.695483,0.274845,-0.246159,0.558906,0.581287,-0.523509,-0.020760,-0.608649,0.883482,0.357134,0.281740,0.244682,0.389851,0.333185,-0.162187,-0.949039,-0.137428
